"sep=,"
Shimmer_6295_TimestampSync_Unix_CAL,Shimmer_6295_GSR_Skin_Conductance_CAL,Shimmer_6295_PPG_A13_CAL,Shimmer_6295_PPGtoHR_CAL,
ms,uS,mV,BPM,
1.6867349232900896E12,0.8606948606948607,1736.263736263736,85.33333333333333,
1.6867349232979019E12,0.8584748584748586,1706.227106227106,85.33333333333333,
1.6867349233057144E12,0.8624708624708626,1678.3882783882782,85.33333333333333,
1.6867349233135266E12,0.8611388611388613,1649.084249084249,85.33333333333333,
1.6867349233213389E12,0.8642468642468644,1622.7106227106226,85.33333333333333,
1.6867349233291514E12,0.862026862026862,1594.8717948717947,85.33333333333333,
1.6867349233369636E12,0.8642468642468644,1568.4981684981683,85.33333333333333,
1.686734923344776E12,0.862026862026862,1542.8571428571427,85.33333333333333,
1.6867349233525884E12,0.8638028638028639,1520.14652014652,85.33333333333333,
1.6867349233604006E12,0.8624708624708626,1503.2967032967033,85.33333333333333,
1.686734923368213E12,0.8633588633588634,1487.9120879120878,85.33333333333333,
1.6867349233760254E12,0.8629148629148631,1477.6556776556777,85.33333333333333,
1.6867349233838376E12,0.8624708624708626,1471.7948717948716,85.33333333333333,
1.68673492339165E12,0.8633588633588634,1470.3296703296703,85.33333333333333,
1.6867349233994624E12,0.8624708624708626,1471.7948717948716,85.33333333333333,
1.6867349234072747E12,0.8638028638028639,1479.120879120879,85.33333333333333,
1.686734923415087E12,0.8615828615828617,1485.7142857142856,85.33333333333333,
1.6867349234228994E12,0.8638028638028639,1494.5054945054944,85.33333333333333,
1.6867349234307117E12,0.8615828615828617,1503.2967032967033,85.33333333333333,
1.686734923438524E12,0.8642468642468644,1510.6227106227104,85.33333333333333,
1.6867349234463364E12,0.8615828615828617,1515.018315018315,85.33333333333333,
1.6867349234541487E12,0.8642468642468644,1512.8205128205127,85.33333333333333,
1.686734923461961E12,0.8615828615828617,1508.4249084249084,85.33333333333333,
1.6867349234697734E12,0.8638028638028639,1502.5641025641025,85.33333333333333,
1.6867349234775857E12,0.862026862026862,1493.040293040293,85.33333333333333,
1.686734923485398E12,0.8633588633588634,1482.051282051282,85.33333333333333,
1.6867349234932104E12,0.8624708624708626,1466.6666666666665,85.33333333333333,
1.6867349235010227E12,0.8629148629148631,1449.8168498168498,85.33333333333333,
1.686734923508835E12,0.8629148629148631,1431.5018315018315,85.33333333333333,
1.6867349235166475E12,0.8624708624708626,1413.9194139194137,85.33333333333333,
1.6867349235244597E12,0.8633588633588634,1399.2673992673992,85.33333333333333,
1.686734923532272E12,0.862026862026862,1381.6849816849815,85.33333333333333,
1.6867349235400845E12,0.8638028638028639,1363.3699633699632,85.33333333333333,
1.6867349235478967E12,0.8615828615828617,1345.7875457875457,85.33333333333333,
1.686734923555709E12,0.8638028638028639,1328.937728937729,85.33333333333333,
1.6867349235635215E12,0.8615828615828617,1315.7509157509157,85.33333333333333,
1.6867349235713337E12,0.8638028638028639,1301.8315018315018,85.33333333333333,
1.686734923579146E12,0.8611388611388613,1289.3772893772893,85.33333333333333,
1.6867349235869585E12,0.8638028638028639,1277.6556776556777,85.33333333333333,
1.6867349235947708E12,0.8615828615828617,1270.3296703296703,85.33333333333333,
1.686734923602583E12,0.8633588633588634,1266.6666666666665,85.33333333333333,
1.6867349236103955E12,0.862026862026862,1263.003663003663,85.33333333333333,
1.6867349236182078E12,0.8629148629148631,1260.07326007326,85.33333333333333,
1.68673492362602E12,0.8624708624708626,1257.8754578754579,85.33333333333333,
1.6867349236338325E12,0.8624708624708626,1257.8754578754579,85.33333333333333,
1.6867349236416448E12,0.8629148629148631,1257.142857142857,85.33333333333333,
1.686734923649457E12,0.8615828615828617,1256.4102564102564,85.33333333333333,
1.6867349236572695E12,0.8633588633588634,1252.7472527472526,85.33333333333333,
1.6867349236650818E12,0.8615828615828617,1248.3516483516482,85.33333333333333,
1.686734923672894E12,0.8633588633588634,1243.956043956044,85.33333333333333,
1.6867349236807065E12,0.8611388611388613,1237.3626373626373,85.33333333333333,
1.6867349236885188E12,0.8638028638028639,1233.6996336996335,85.33333333333333,
1.686734923696331E12,0.8611388611388613,1227.8388278388277,85.33333333333333,
1.6867349237041436E12,0.8633588633588634,1221.245421245421,85.33333333333333,
1.6867349237119558E12,0.8611388611388613,1215.3846153846152,85.33333333333333,
1.686734923719768E12,0.8633588633588634,1210.989010989011,85.33333333333333,
1.6867349237275806E12,0.8611388611388613,1211.7216117216117,85.33333333333333,
1.6867349237353928E12,0.8629148629148631,1211.7216117216117,85.33333333333333,
1.686734923743205E12,0.862026862026862,1216.8498168498168,85.33333333333333,
1.6867349237510176E12,0.8624708624708626,1227.8388278388277,85.33333333333333,
1.6867349237588298E12,0.8624708624708626,1249.8168498168498,85.33333333333333,
1.686734923766642E12,0.8615828615828617,1289.3772893772893,85.33333333333333,
1.6867349237744546E12,0.8629148629148631,1342.8571428571427,85.33333333333333,
1.6867349237822668E12,0.8615828615828617,1413.1868131868132,85.33333333333333,
1.686734923790079E12,0.8633588633588634,1498.9010989010987,85.33333333333333,
1.6867349237978916E12,0.8606948606948607,1594.139194139194,85.33333333333333,
1.6867349238057039E12,0.8633588633588634,1695.970695970696,85.33333333333333,
1.686734923813516E12,0.8606948606948607,1795.6043956043954,85.33333333333333,
1.6867349238213286E12,0.8633588633588634,1890.8424908424906,85.33333333333333,
1.6867349238291409E12,0.8606948606948607,1978.021978021978,85.33333333333333,
1.6867349238369531E12,0.8629148629148631,2049.0842490842488,85.33333333333333,
1.6867349238447656E12,0.8606948606948607,2101.8315018315016,85.33333333333333,
1.686734923852578E12,0.8629148629148631,2140.6593406593406,85.33333333333333,
1.6867349238603901E12,0.8611388611388613,2161.904761904762,85.33333333333333,
1.6867349238682026E12,0.862026862026862,2169.230769230769,85.33333333333333,
1.686734923876015E12,0.8615828615828617,2164.8351648351645,85.33333333333333,
1.6867349238838271E12,0.8615828615828617,2145.0549450549447,85.33333333333333,
1.6867349238916396E12,0.862026862026862,2117.2161172161173,85.33333333333333,
1.686734923899452E12,0.8611388611388613,2078.388278388278,85.33333333333333,
1.6867349239072642E12,0.8624708624708626,2035.8974358974358,85.33333333333333,
1.6867349239150767E12,0.8611388611388613,1990.4761904761904,85.33333333333333,
1.686734923922889E12,0.8629148629148631,1945.054945054945,85.33333333333333,
1.6867349239307012E12,0.8602508602508603,1901.098901098901,85.33333333333333,
1.6867349239385137E12,0.8629148629148631,1856.4102564102564,85.33333333333333,
1.686734923946326E12,0.8602508602508603,1813.9194139194137,85.33333333333333,
1.6867349239541382E12,0.8629148629148631,1773.6263736263736,85.33333333333333,
1.6867349239619507E12,0.8606948606948607,1736.263736263736,85.33333333333333,
1.686734923969763E12,0.8624708624708626,1703.296703296703,85.33333333333333,
1.6867349239775752E12,0.8606948606948607,1666.6666666666665,85.33333333333333,
1.6867349239853877E12,0.862026862026862,1632.2344322344322,85.33333333333333,
1.6867349239932E12,0.8611388611388613,1597.069597069597,76.8,
1.6867349240010122E12,0.8615828615828617,1560.4395604395604,76.8,
1.6867349240088247E12,0.8615828615828617,1528.937728937729,76.8,
1.686734924016637E12,0.8611388611388613,1497.4358974358972,76.8,
1.6867349240244492E12,0.862026862026862,1470.3296703296703,76.8,
1.6867349240322617E12,0.8606948606948607,1445.4212454212454,76.8,
1.686734924040074E12,0.862026862026862,1424.1758241758241,76.8,
1.6867349240478862E12,0.8602508602508603,1405.8608058608058,76.8,
1.6867349240556987E12,0.8624708624708626,1394.8717948717947,76.8,
1.686734924063511E12,0.8602508602508603,1386.8131868131868,76.8,
1.6867349240713232E12,0.8624708624708626,1383.8827838827838,76.8,
1.6867349240791357E12,0.8602508602508603,1383.8827838827838,76.8,
1.686734924086948E12,0.8624708624708626,1389.0109890109889,76.8,
1.6867349240947603E12,0.8606948606948607,1397.069597069597,76.8,
1.6867349241025728E12,0.8624708624708626,1402.9304029304028,76.8,
1.686734924110385E12,0.8611388611388613,1408.058608058608,76.8,
1.6867349241181973E12,0.862026862026862,1410.989010989011,76.8,
1.6867349241260098E12,0.8615828615828617,1408.7912087912086,76.8,
1.686734924133822E12,0.8615828615828617,1405.8608058608058,76.8,
1.6867349241416343E12,0.862026862026862,1398.5347985347985,76.8,
1.6867349241494468E12,0.8606948606948607,1390.4761904761904,76.8,
1.686734924157259E12,0.8624708624708626,1379.4871794871794,76.8,
1.6867349241650713E12,0.8606948606948607,1369.9633699633698,76.8,
1.6867349241728838E12,0.8629148629148631,1361.904761904762,76.8,
1.686734924180696E12,0.8602508602508603,1350.18315018315,76.8,
1.6867349241885083E12,0.8629148629148631,1334.065934065934,76.8,
1.6867349241963208E12,0.8602508602508603,1317.216117216117,76.8,
1.686734924204133E12,0.8629148629148631,1301.8315018315018,76.8,
1.6867349242119453E12,0.8606948606948607,1287.9120879120878,76.8,
1.6867349242197578E12,0.8624708624708626,1272.5274725274724,76.8,
1.68673492422757E12,0.8606948606948607,1257.8754578754579,76.8,
1.6867349242353823E12,0.862026862026862,1245.4212454212454,76.8,
1.6867349242431948E12,0.8611388611388613,1232.2344322344322,76.8,
1.686734924251007E12,0.8615828615828617,1219.047619047619,76.8,
1.6867349242588193E12,0.8615828615828617,1205.128205128205,76.8,
1.6867349242666318E12,0.8611388611388613,1193.4065934065934,76.8,
1.686734924274444E12,0.862026862026862,1184.6153846153845,76.8,
1.6867349242822563E12,0.8606948606948607,1177.2893772893772,76.8,
1.6867349242900688E12,0.8624708624708626,1171.4285714285713,76.8,
1.686734924297881E12,0.8602508602508603,1167.032967032967,76.8,
1.6867349243056934E12,0.8629148629148631,1159.7069597069597,76.8,
1.6867349243135059E12,0.8606948606948607,1153.113553113553,76.8,
1.686734924321318E12,0.8633588633588634,1147.985347985348,76.8,
1.6867349243291304E12,0.8606948606948607,1142.1245421245421,76.8,
1.6867349243369429E12,0.8633588633588634,1138.4615384615383,76.8,
1.6867349243447551E12,0.8611388611388613,1134.7985347985348,76.8,
1.6867349243525674E12,0.8629148629148631,1128.937728937729,76.8,
1.68673492436038E12,0.8615828615828617,1126.007326007326,76.8,
1.6867349243681921E12,0.8624708624708626,1124.5421245421244,76.8,
1.6867349243760044E12,0.8624708624708626,1123.8095238095236,76.8,
1.686734924383817E12,0.8624708624708626,1120.8791208791208,76.8,
1.6867349243916292E12,0.8629148629148631,1120.8791208791208,76.8,
1.6867349243994414E12,0.862026862026862,1119.4139194139193,76.8,
1.686734924407254E12,0.8633588633588634,1117.9487179487178,76.8,
1.6867349244150662E12,0.862026862026862,1119.4139194139193,76.8,
1.6867349244228784E12,0.8638028638028639,1117.2161172161173,76.8,
1.686734924430691E12,0.8615828615828617,1115.018315018315,76.8,
1.6867349244385032E12,0.8638028638028639,1112.8205128205127,76.8,
1.6867349244463154E12,0.8615828615828617,1110.6227106227107,76.8,
1.686734924454128E12,0.8638028638028639,1110.6227106227107,76.8,
1.6867349244619402E12,0.8615828615828617,1108.4249084249084,76.8,
1.6867349244697524E12,0.8633588633588634,1109.89010989011,76.8,
1.686734924477565E12,0.8615828615828617,1116.4835164835165,76.8,
1.6867349244853772E12,0.8633588633588634,1131.135531135531,76.8,
1.6867349244931895E12,0.862026862026862,1153.8461538461538,76.8,
1.686734924501002E12,0.8624708624708626,1192.6739926739926,76.8,
1.6867349245088142E12,0.8629148629148631,1244.6886446886447,76.8,
1.6867349245166265E12,0.862026862026862,1310.6227106227104,76.8,
1.686734924524439E12,0.8633588633588634,1390.4761904761904,76.8,
1.6867349245322512E12,0.862026862026862,1479.8534798534797,76.8,
1.6867349245400635E12,0.8638028638028639,1577.2893772893772,76.8,
1.686734924547876E12,0.8615828615828617,1675.4578754578754,76.8,
1.6867349245556882E12,0.8638028638028639,1769.230769230769,76.8,
1.6867349245635005E12,0.8615828615828617,1852.7472527472526,76.8,
1.686734924571313E12,0.8642468642468644,1923.0769230769229,76.8,
1.6867349245791252E12,0.8615828615828617,1980.21978021978,76.8,
1.6867349245869375E12,0.8638028638028639,2018.3150183150183,76.8,
1.68673492459475E12,0.862026862026862,2043.2234432234432,76.8,
1.6867349246025623E12,0.8638028638028639,2053.4798534798533,76.8,
1.6867349246103745E12,0.862026862026862,2049.0842490842488,76.8,
1.686734924618187E12,0.8629148629148631,2035.8974358974358,76.8,
1.6867349246259993E12,0.8629148629148631,2008.7912087912086,76.8,
1.6867349246338115E12,0.8624708624708626,1973.6263736263736,76.8,
1.686734924641624E12,0.8629148629148631,1933.3333333333333,76.8,
1.6867349246494363E12,0.862026862026862,1887.9120879120878,76.8,
1.6867349246572485E12,0.8633588633588634,1844.6886446886447,76.8,
1.686734924665061E12,0.8615828615828617,1800.7326007326005,76.8,
1.6867349246728733E12,0.8638028638028639,1758.974358974359,78.36734693877551,
1.6867349246806855E12,0.8611388611388613,1720.14652014652,78.36734693877551,
1.686734924688498E12,0.8638028638028639,1683.5164835164835,78.36734693877551,
1.6867349246963103E12,0.8611388611388613,1651.2820512820513,78.36734693877551,
1.6867349247041226E12,0.8638028638028639,1616.8498168498168,78.36734693877551,
1.686734924711935E12,0.8611388611388613,1583.8827838827838,78.36734693877551,
1.6867349247197473E12,0.8633588633588634,1550.18315018315,78.36734693877551,
1.6867349247275596E12,0.8615828615828617,1517.9487179487178,78.36734693877551,
1.686734924735372E12,0.8633588633588634,1485.7142857142856,78.36734693877551,
1.6867349247431843E12,0.8624708624708626,1455.6776556776556,78.36734693877551,
1.6867349247509966E12,0.8629148629148631,1424.1758241758241,78.36734693877551,
1.686734924758809E12,0.8629148629148631,1395.6043956043954,78.36734693877551,
1.6867349247666213E12,0.862026862026862,1369.9633699633698,78.36734693877551,
1.6867349247744336E12,0.8633588633588634,1345.054945054945,78.36734693877551,
1.686734924782246E12,0.8615828615828617,1326.7399267399267,78.36734693877551,
1.6867349247900583E12,0.8633588633588634,1309.89010989011,78.36734693877551,
1.6867349247978706E12,0.8615828615828617,1295.970695970696,78.36734693877551,
1.686734924805683E12,0.8638028638028639,1286.4468864468863,78.36734693877551,
1.6867349248134954E12,0.8615828615828617,1282.7838827838827,78.36734693877551,
1.6867349248213076E12,0.8638028638028639,1284.9816849816848,78.36734693877551,
1.68673492482912E12,0.8615828615828617,1288.6446886446886,78.36734693877551,
1.6867349248369324E12,0.8638028638028639,1293.040293040293,78.36734693877551,
1.6867349248447446E12,0.8615828615828617,1299.6336996336995,78.36734693877551,
1.6867349248525571E12,0.8638028638028639,1307.6923076923076,78.36734693877551,
1.6867349248603694E12,0.862026862026862,1315.7509157509157,78.36734693877551,
1.6867349248681816E12,0.8629148629148631,1319.4139194139193,78.36734693877551,
1.6867349248759941E12,0.8624708624708626,1318.6813186813185,78.36734693877551,
1.6867349248838064E12,0.8624708624708626,1317.216117216117,78.36734693877551,
1.6867349248916187E12,0.8633588633588634,1317.216117216117,78.36734693877551,
1.6867349248994312E12,0.862026862026862,1315.018315018315,78.36734693877551,
1.6867349249072434E12,0.8638028638028639,1307.6923076923076,78.36734693877551,
1.6867349249150557E12,0.862026862026862,1297.4358974358975,78.36734693877551,
1.6867349249228682E12,0.8638028638028639,1284.9816849816848,78.36734693877551,
1.6867349249306804E12,0.8615828615828617,1270.3296703296703,78.36734693877551,
1.6867349249384927E12,0.8642468642468644,1254.9450549450548,78.36734693877551,
1.6867349249463052E12,0.8615828615828617,1241.7582417582416,78.36734693877551,
1.6867349249541174E12,0.8638028638028639,1227.106227106227,78.36734693877551,
1.6867349249619297E12,0.8615828615828617,1212.4542124542124,78.36734693877551,
1.6867349249697422E12,0.8638028638028639,1199.2673992673992,78.36734693877551,
1.6867349249775544E12,0.862026862026862,1184.6153846153845,78.36734693877551,
1.686734924985367E12,0.8633588633588634,1172.161172161172,78.36734693877551,
1.6867349249931792E12,0.8624708624708626,1155.3113553113553,78.36734693877551,
1.6867349250009915E12,0.8629148629148631,1139.9267399267399,78.36734693877551,
1.686734925008804E12,0.8633588633588634,1128.2051282051282,78.36734693877551,
1.6867349250166162E12,0.8629148629148631,1117.9487179487178,78.36734693877551,
1.6867349250244285E12,0.8638028638028639,1109.89010989011,78.36734693877551,
1.686734925032241E12,0.8624708624708626,1100.3663003663003,78.36734693877551,
1.6867349250400532E12,0.8642468642468644,1093.040293040293,78.36734693877551,
1.6867349250478655E12,0.8624708624708626,1087.179487179487,78.36734693877551,
1.686734925055678E12,0.8646908646908646,1082.7838827838827,78.36734693877551,
1.6867349250634902E12,0.862026862026862,1082.051282051282,78.36734693877551,
1.6867349250713025E12,0.8646908646908646,1082.051282051282,78.36734693877551,
1.686734925079115E12,0.862026862026862,1083.5164835164835,78.36734693877551,
1.6867349250869272E12,0.8646908646908646,1085.7142857142856,78.36734693877551,
1.6867349250947395E12,0.8624708624708626,1084.981684981685,78.36734693877551,
1.686734925102552E12,0.8642468642468644,1085.7142857142856,78.36734693877551,
1.6867349251103643E12,0.8633588633588634,1086.4468864468863,78.36734693877551,
1.6867349251181765E12,0.8642468642468644,1087.179487179487,78.36734693877551,
1.686734925125989E12,0.8638028638028639,1090.10989010989,78.36734693877551,
1.6867349251338013E12,0.8638028638028639,1093.7728937728937,78.36734693877551,
1.6867349251416135E12,0.8642468642468644,1096.7032967032967,78.36734693877551,
1.686734925149426E12,0.8633588633588634,1101.098901098901,78.36734693877551,
1.6867349251572383E12,0.8651348651348651,1103.2967032967033,78.36734693877551,
1.6867349251650505E12,0.8633588633588634,1104.029304029304,78.36734693877551,
1.686734925172863E12,0.8655788655788657,1104.7619047619046,78.36734693877551,
1.6867349251806753E12,0.8633588633588634,1105.4945054945053,78.36734693877551,
1.6867349251884875E12,0.8660228660228659,1106.9597069597069,78.36734693877551,
1.6867349251963E12,0.8633588633588634,1105.4945054945053,78.36734693877551,
1.6867349252041123E12,0.8660228660228659,1107.6923076923076,78.36734693877551,
1.6867349252119246E12,0.8638028638028639,1109.1575091575091,78.36734693877551,
1.686734925219737E12,0.8660228660228659,1111.3553113553112,78.36734693877551,
1.6867349252275493E12,0.8642468642468644,1115.7509157509157,78.36734693877551,
1.6867349252353616E12,0.8655788655788657,1117.2161172161173,78.36734693877551,
1.686734925243174E12,0.8646908646908646,1119.4139194139193,78.36734693877551,
1.6867349252509863E12,0.8651348651348651,1125.2747252747251,78.36734693877551,
1.6867349252587986E12,0.8655788655788657,1134.065934065934,78.36734693877551,
1.686734925266611E12,0.8646908646908646,1148.7179487179487,78.36734693877551,
1.6867349252744233E12,0.8660228660228659,1170.6959706959706,78.36734693877551,
1.6867349252822356E12,0.8646908646908646,1205.128205128205,78.36734693877551,
1.686734925290048E12,0.8664668664668664,1253.4798534798533,78.36734693877551,
1.6867349252978604E12,0.8646908646908646,1313.5531135531135,78.36734693877551,
1.6867349253056726E12,0.8669108669108669,1386.080586080586,78.36734693877551,
1.686734925313485E12,0.8646908646908646,1462.2710622710622,78.36734693877551,
1.6867349253212974E12,0.8673548673548673,1542.8571428571427,78.36734693877551,
1.6867349253291096E12,0.8646908646908646,1624.9084249084249,78.36734693877551,
1.686734925336922E12,0.8673548673548673,1704.7619047619046,78.36734693877551,
1.6867349253447344E12,0.8651348651348651,1780.9523809523807,78.36734693877551,
1.6867349253525466E12,0.8673548673548673,1841.7582417582416,78.36734693877551,
1.6867349253603591E12,0.8660228660228659,1890.1098901098899,78.36734693877551,
1.6867349253681714E12,0.8669108669108669,1922.344322344322,78.36734693877551,
1.6867349253759836E12,0.8664668664668664,1940.6593406593406,78.36734693877551,
1.6867349253837961E12,0.8664668664668664,1945.054945054945,78.36734693877551,
1.6867349253916084E12,0.8673548673548673,1939.194139194139,78.36734693877551,
1.6867349253994207E12,0.8660228660228659,1919.4139194139193,78.36734693877551,
1.6867349254072332E12,0.8677988677988678,1890.1098901098899,88.27586206896552,
1.6867349254150454E12,0.8664668664668664,1856.4102564102564,88.27586206896552,
1.6867349254228577E12,0.8686868686868686,1817.5824175824175,88.27586206896552,
1.6867349254306702E12,0.8664668664668664,1777.2893772893772,88.27586206896552,
1.6867349254384824E12,0.8686868686868686,1734.065934065934,88.27586206896552,
1.6867349254462947E12,0.8660228660228659,1692.3076923076922,88.27586206896552,
1.6867349254541072E12,0.8691308691308691,1652.0146520146518,88.27586206896552,
1.6867349254619194E12,0.8664668664668664,1615.3846153846152,88.27586206896552,
1.6867349254697317E12,0.8691308691308691,1586.080586080586,88.27586206896552,
1.6867349254775442E12,0.8673548673548673,1556.0439560439559,88.27586206896552,
1.6867349254853564E12,0.8686868686868686,1526.007326007326,88.27586206896552,
1.6867349254931687E12,0.8682428682428683,1495.970695970696,88.27586206896552,
1.6867349255009812E12,0.8686868686868686,1465.9340659340658,88.27586206896552,
1.6867349255087935E12,0.8686868686868686,1439.5604395604394,88.27586206896552,
1.6867349255166057E12,0.8682428682428683,1411.7216117216117,88.27586206896552,
1.6867349255244182E12,0.8695748695748695,1386.8131868131868,88.27586206896552,
1.6867349255322305E12,0.8682428682428683,1364.102564102564,88.27586206896552,
1.6867349255400427E12,0.87001887001887,1342.1245421245421,88.27586206896552,
1.6867349255478552E12,0.8682428682428683,1325.2747252747251,88.27586206896552,
1.6867349255556675E12,0.8704628704628705,1307.6923076923076,88.27586206896552,
1.6867349255634797E12,0.8682428682428683,1292.3076923076922,88.27586206896552,
1.6867349255712922E12,0.8709068709068709,1282.051282051282,88.27586206896552,
1.6867349255791045E12,0.8686868686868686,1273.260073260073,88.27586206896552,
1.6867349255869167E12,0.8709068709068709,1267.3992673992673,88.27586206896552,
1.6867349255947292E12,0.8686868686868686,1268.131868131868,88.27586206896552,
1.6867349256025415E12,0.8709068709068709,1269.5970695970695,88.27586206896552,
1.6867349256103538E12,0.8695748695748695,1275.4578754578754,88.27586206896552,
1.6867349256181663E12,0.8704628704628705,1282.051282051282,88.27586206896552,
1.6867349256259785E12,0.8704628704628705,1287.9120879120878,88.27586206896552,
1.6867349256337908E12,0.8704628704628705,1295.2380952380952,88.27586206896552,
1.6867349256416033E12,0.8709068709068709,1298.9010989010987,88.27586206896552,
1.6867349256494155E12,0.87001887001887,1302.5641025641025,88.27586206896552,
1.6867349256572278E12,0.8717948717948718,1304.0293040293038,88.27586206896552,
1.6867349256650403E12,0.87001887001887,1301.8315018315018,88.27586206896552,
1.6867349256728525E12,0.8722388722388723,1299.6336996336995,88.27586206896552,
1.6867349256806648E12,0.8695748695748695,1293.7728937728937,88.27586206896552,
1.6867349256884773E12,0.8722388722388723,1286.4468864468863,88.27586206896552,
1.6867349256962896E12,0.87001887001887,1276.923076923077,88.27586206896552,
1.6867349257041018E12,0.8726828726828727,1266.6666666666665,88.27586206896552,
1.6867349257119143E12,0.8704628704628705,1257.8754578754579,88.27586206896552,
1.6867349257197266E12,0.8726828726828727,1246.8864468864467,88.27586206896552,
1.6867349257275388E12,0.8713508713508713,1236.6300366300366,88.27586206896552,
1.6867349257353513E12,0.8726828726828727,1225.6410256410256,88.27586206896552,
1.6867349257431636E12,0.8717948717948718,1214.6520146520145,88.27586206896552,
1.6867349257509758E12,0.8726828726828727,1204.3956043956043,88.27586206896552,
1.6867349257587883E12,0.8726828726828727,1189.7435897435896,88.27586206896552,
1.6867349257666006E12,0.8722388722388723,1178.021978021978,88.27586206896552,
1.6867349257744128E12,0.8731268731268732,1167.032967032967,88.27586206896552,
1.6867349257822253E12,0.8722388722388723,1158.974358974359,88.27586206896552,
1.6867349257900376E12,0.8740148740148739,1153.8461538461538,88.27586206896552,
1.6867349257978499E12,0.8717948717948718,1147.985347985348,88.27586206896552,
1.6867349258056624E12,0.8744588744588745,1142.857142857143,88.27586206896552,
1.6867349258134746E12,0.8722388722388723,1139.194139194139,88.27586206896552,
1.6867349258212869E12,0.8749028749028749,1136.2637362637363,88.27586206896552,
1.6867349258290994E12,0.8722388722388723,1134.065934065934,88.27586206896552,
1.6867349258369116E12,0.8749028749028749,1136.2637362637363,88.27586206896552,
1.6867349258447239E12,0.8726828726828727,1138.4615384615383,88.27586206896552,
1.6867349258525364E12,0.8749028749028749,1139.9267399267399,88.27586206896552,
1.6867349258603486E12,0.8735708735708736,1142.1245421245421,88.27586206896552,
1.686734925868161E12,0.8744588744588745,1144.3223443223442,88.27586206896552,
1.6867349258759734E12,0.8744588744588745,1150.18315018315,88.27586206896552,
1.6867349258837856E12,0.8740148740148739,1156.0439560439559,88.27586206896552,
1.686734925891598E12,0.8749028749028749,1160.4395604395604,88.27586206896552,
1.6867349258994104E12,0.8744588744588745,1164.102564102564,88.27586206896552,
1.6867349259072227E12,0.8757908757908757,1166.3003663003662,88.27586206896552,
1.686734925915035E12,0.8740148740148739,1170.6959706959706,88.27586206896552,
1.6867349259228474E12,0.8762348762348763,1171.4285714285713,88.27586206896552,
1.6867349259306597E12,0.8740148740148739,1170.6959706959706,88.27586206896552,
1.686734925938472E12,0.8766788766788766,1167.7655677655678,88.27586206896552,
1.6867349259462844E12,0.8744588744588745,1164.8351648351647,88.27586206896552,
1.6867349259540967E12,0.8766788766788766,1165.5677655677655,88.27586206896552,
1.686734925961909E12,0.8744588744588745,1167.7655677655678,88.27586206896552,
1.6867349259697214E12,0.8766788766788766,1175.8241758241757,88.27586206896552,
1.6867349259775337E12,0.8749028749028749,1189.0109890109889,88.27586206896552,
1.686734925985346E12,0.8766788766788766,1208.058608058608,88.27586206896552,
1.6867349259931584E12,0.8757908757908757,1239.5604395604396,88.27586206896552,
1.6867349260009707E12,0.8762348762348763,1279.8534798534797,88.27586206896552,
1.686734926008783E12,0.8762348762348763,1331.8681318681317,88.27586206896552,
1.6867349260165955E12,0.8762348762348763,1394.8717948717947,88.27586206896552,
1.6867349260244077E12,0.8771228771228771,1466.6666666666665,88.27586206896552,
1.68673492603222E12,0.8757908757908757,1542.8571428571427,88.27586206896552,
1.6867349260400325E12,0.8775668775668777,1621.245421245421,88.27586206896552,
1.6867349260478447E12,0.8753468753468754,1691.5750915750914,88.27586206896552,
1.686734926055657E12,0.878010878010878,1753.113553113553,88.27586206896552,
1.6867349260634695E12,0.8753468753468754,1805.128205128205,88.27586206896552,
1.6867349260712817E12,0.878010878010878,1846.153846153846,88.27586206896552,
1.686734926079094E12,0.8757908757908757,1873.9926739926739,88.27586206896552,
1.6867349260869065E12,0.878010878010878,1886.4468864468863,88.27586206896552,
1.6867349260947188E12,0.8762348762348763,1885.7142857142856,88.27586206896552,
1.686734926102531E12,0.878010878010878,1872.5274725274724,88.27586206896552,
1.6867349261103435E12,0.8766788766788766,1848.3516483516482,88.27586206896552,
1.6867349261181558E12,0.8775668775668777,1819.047619047619,88.27586206896552,
1.686734926125968E12,0.8775668775668777,1780.9523809523807,88.27586206896552,
1.6867349261337805E12,0.8771228771228771,1739.194139194139,88.27586206896552,
1.6867349261415928E12,0.878010878010878,1695.2380952380952,88.27586206896552,
1.686734926149405E12,0.8766788766788766,1651.2820512820513,88.27586206896552,
1.6867349261572175E12,0.8784548784548785,1608.7912087912086,88.27586206896552,
1.6867349261650298E12,0.8766788766788766,1564.8351648351647,88.27586206896552,
1.686734926172842E12,0.878898878898879,1521.6117216117216,88.27586206896552,
1.6867349261806545E12,0.8766788766788766,1482.051282051282,88.27586206896552,
1.6867349261884668E12,0.878898878898879,1446.153846153846,81.70212765957447,
1.686734926196279E12,0.8766788766788766,1413.1868131868132,81.70212765957447,
1.6867349262040916E12,0.878898878898879,1380.2197802197802,81.70212765957447,
1.6867349262119038E12,0.8766788766788766,1350.18315018315,81.70212765957447,
1.686734926219716E12,0.878898878898879,1324.5421245421244,81.70212765957447,
1.6867349262275286E12,0.8771228771228771,1301.8315018315018,81.70212765957447,
1.6867349262353408E12,0.8784548784548785,1282.051282051282,81.70212765957447,
1.686734926243153E12,0.8775668775668777,1262.2710622710622,81.70212765957447,
1.6867349262509656E12,0.878010878010878,1244.6886446886447,81.70212765957447,
1.6867349262587778E12,0.878010878010878,1231.5018315018315,81.70212765957447,
1.68673492626659E12,0.8775668775668777,1223.4432234432234,81.70212765957447,
1.6867349262744026E12,0.878898878898879,1220.5128205128203,81.70212765957447,
1.6867349262822148E12,0.8771228771228771,1222.7106227106226,81.70212765957447,
1.686734926290027E12,0.878898878898879,1224.9084249084249,81.70212765957447,
1.6867349262978396E12,0.8771228771228771,1228.5714285714284,81.70212765957447,
1.6867349263056519E12,0.8793428793428792,1234.4322344322343,81.70212765957447,
1.686734926313464E12,0.8771228771228771,1241.0256410256409,81.70212765957447,
1.6867349263212766E12,0.8797868797868797,1250.5494505494505,81.70212765957447,
1.6867349263290889E12,0.8775668775668777,1260.07326007326,81.70212765957447,
1.6867349263369011E12,0.8797868797868797,1268.131868131868,81.70212765957447,
1.6867349263447136E12,0.8775668775668777,1274.7252747252746,81.70212765957447,
1.686734926352526E12,0.8793428793428792,1280.5860805860805,81.70212765957447,
1.6867349263603381E12,0.878010878010878,1284.9816849816848,81.70212765957447,
1.6867349263681506E12,0.878898878898879,1284.2490842490843,81.70212765957447,
1.686734926375963E12,0.878898878898879,1281.3186813186812,81.70212765957447,
1.6867349263837751E12,0.8784548784548785,1276.1904761904761,81.70212765957447,
1.6867349263915876E12,0.8793428793428792,1271.7948717948716,81.70212765957447,
1.6867349263994E12,0.878010878010878,1267.3992673992673,81.70212765957447,
1.6867349264072122E12,0.8797868797868797,1257.8754578754579,81.70212765957447,
1.6867349264150247E12,0.878010878010878,1246.8864468864467,81.70212765957447,
1.686734926422837E12,0.8802308802308801,1234.4322344322343,81.70212765957447,
1.6867349264306492E12,0.878010878010878,1221.9780219780218,81.70212765957447,
1.6867349264384617E12,0.8802308802308801,1213.1868131868132,81.70212765957447,
1.686734926446274E12,0.8775668775668777,1205.128205128205,81.70212765957447,
1.6867349264540862E12,0.8802308802308801,1197.069597069597,81.70212765957447,
1.6867349264618987E12,0.878010878010878,1190.4761904761904,81.70212765957447,
1.686734926469711E12,0.8802308802308801,1185.3479853479853,81.70212765957447,
1.6867349264775232E12,0.8784548784548785,1180.2197802197802,81.70212765957447,
1.6867349264853357E12,0.8797868797868797,1178.7545787545787,81.70212765957447,
1.686734926493148E12,0.878898878898879,1177.2893772893772,81.70212765957447,
1.6867349265009602E12,0.878898878898879,1174.3589743589744,81.70212765957447,
1.6867349265087727E12,0.8793428793428792,1172.161172161172,81.70212765957447,
1.686734926516585E12,0.878898878898879,1172.161172161172,81.70212765957447,
1.6867349265243972E12,0.8797868797868797,1176.5567765567764,81.70212765957447,
1.6867349265322097E12,0.878010878010878,1178.021978021978,81.70212765957447,
1.686734926540022E12,0.8802308802308801,1180.2197802197802,81.70212765957447,
1.6867349265478342E12,0.878010878010878,1180.952380952381,81.70212765957447,
1.6867349265556467E12,0.8802308802308801,1180.2197802197802,81.70212765957447,
1.686734926563459E12,0.878010878010878,1181.6849816849815,81.70212765957447,
1.6867349265712712E12,0.8806748806748805,1178.7545787545787,81.70212765957447,
1.6867349265790837E12,0.878010878010878,1176.5567765567764,81.70212765957447,
1.686734926586896E12,0.8806748806748805,1175.8241758241757,81.70212765957447,
1.6867349265947083E12,0.8784548784548785,1174.3589743589744,81.70212765957447,
1.6867349266025208E12,0.8802308802308801,1174.3589743589744,81.70212765957447,
1.686734926610333E12,0.878898878898879,1172.161172161172,81.70212765957447,
1.6867349266181453E12,0.8797868797868797,1172.8937728937728,81.70212765957447,
1.6867349266259578E12,0.8797868797868797,1174.3589743589744,81.70212765957447,
1.68673492663377E12,0.8793428793428792,1179.4871794871794,81.70212765957447,
1.6867349266415823E12,0.8802308802308801,1191.9413919413919,81.70212765957447,
1.6867349266493948E12,0.878898878898879,1208.7912087912086,81.70212765957447,
1.686734926657207E12,0.8806748806748805,1232.967032967033,81.70212765957447,
1.6867349266650193E12,0.878898878898879,1265.9340659340658,81.70212765957447,
1.6867349266728318E12,0.8806748806748805,1308.4249084249084,81.70212765957447,
1.686734926680644E12,0.878898878898879,1363.3699633699632,81.70212765957447,
1.6867349266884563E12,0.881118881118881,1427.8388278388277,81.70212765957447,
1.6867349266962688E12,0.878898878898879,1496.7032967032967,81.70212765957447,
1.686734926704081E12,0.881118881118881,1567.7655677655678,81.70212765957447,
1.6867349267118933E12,0.878898878898879,1636.6300366300366,81.70212765957447,
1.6867349267197058E12,0.881118881118881,1699.6336996336995,81.70212765957447,
1.686734926727518E12,0.8793428793428792,1753.8461538461538,81.70212765957447,
1.6867349267353303E12,0.8802308802308801,1795.6043956043954,81.70212765957447,
1.6867349267431428E12,0.8797868797868797,1824.9084249084249,81.70212765957447,
1.686734926750955E12,0.8797868797868797,1841.0256410256409,81.70212765957447,
1.6867349267587673E12,0.8802308802308801,1845.4212454212452,81.70212765957447,
1.6867349267665798E12,0.8793428793428792,1839.5604395604394,81.70212765957447,
1.686734926774392E12,0.8806748806748805,1819.7802197802196,81.70212765957447,
1.6867349267822043E12,0.878898878898879,1791.9413919413919,81.70212765957447,
1.6867349267900168E12,0.881118881118881,1758.2417582417581,81.70212765957447,
1.686734926797829E12,0.8784548784548785,1720.14652014652,81.70212765957447,
1.6867349268056414E12,0.8806748806748805,1679.120879120879,81.70212765957447,
1.6867349268134539E12,0.8784548784548785,1632.9670329670328,81.70212765957447,
1.686734926821266E12,0.881118881118881,1586.8131868131868,81.70212765957447,
1.6867349268290784E12,0.8784548784548785,1542.1245421245421,81.70212765957447,
1.6867349268368909E12,0.8806748806748805,1501.098901098901,81.70212765957447,
1.6867349268447031E12,0.878898878898879,1465.201465201465,81.70212765957447,
1.6867349268525154E12,0.8806748806748805,1428.5714285714284,81.70212765957447,
1.686734926860328E12,0.8793428793428792,1396.3369963369962,81.70212765957447,
1.6867349268681401E12,0.8802308802308801,1365.5677655677655,81.70212765957447,
1.6867349268759524E12,0.8797868797868797,1338.4615384615383,81.70212765957447,
1.686734926883765E12,0.8793428793428792,1315.7509157509157,81.70212765957447,
1.6867349268915771E12,0.8806748806748805,1292.3076923076922,76.8,
1.6867349268993894E12,0.8793428793428792,1271.062271062271,76.8,
1.686734926907202E12,0.8806748806748805,1253.4798534798533,76.8,
1.6867349269150142E12,0.878898878898879,1237.3626373626373,76.8,
1.6867349269228264E12,0.881118881118881,1223.4432234432234,76.8,
1.686734926930639E12,0.878898878898879,1214.6520146520145,76.8,
1.6867349269384512E12,0.881118881118881,1208.058608058608,76.8,
1.6867349269462634E12,0.8784548784548785,1202.197802197802,76.8,
1.686734926954076E12,0.881118881118881,1197.8021978021977,76.8,
1.6867349269618882E12,0.8784548784548785,1197.069597069597,76.8,
1.6867349269697004E12,0.8806748806748805,1202.197802197802,76.8,
1.686734926977513E12,0.878898878898879,1206.5934065934066,76.8,
1.6867349269853252E12,0.8806748806748805,1211.7216117216117,76.8,
1.6867349269931375E12,0.8802308802308801,1218.3150183150183,76.8,
1.68673492700095E12,0.8797868797868797,1223.4432234432234,76.8,
1.6867349270087622E12,0.8802308802308801,1231.5018315018315,76.8,
1.6867349270165745E12,0.8797868797868797,1237.3626373626373,76.8,
1.686734927024387E12,0.8806748806748805,1243.2234432234432,76.8,
1.6867349270321992E12,0.878898878898879,1246.8864468864467,76.8,
1.6867349270400115E12,0.881118881118881,1246.8864468864467,76.8,
1.686734927047824E12,0.878898878898879,1245.4212454212454,76.8,
1.6867349270556362E12,0.881118881118881,1239.5604395604396,76.8,
1.6867349270634485E12,0.878898878898879,1232.967032967033,76.8,
1.686734927071261E12,0.881118881118881,1226.3736263736264,76.8,
1.6867349270790732E12,0.878898878898879,1219.047619047619,76.8,
1.6867349270868855E12,0.881118881118881,1214.6520146520145,76.8,
1.686734927094698E12,0.878898878898879,1209.5238095238094,76.8,
1.6867349271025103E12,0.8806748806748805,1202.9304029304028,76.8,
1.6867349271103225E12,0.878898878898879,1197.069597069597,76.8,
1.686734927118135E12,0.8797868797868797,1191.2087912087911,76.8,
1.6867349271259473E12,0.8797868797868797,1183.8827838827838,76.8,
1.6867349271337595E12,0.8793428793428792,1178.021978021978,76.8,
1.686734927141572E12,0.8797868797868797,1171.4285714285713,76.8,
1.6867349271493843E12,0.8784548784548785,1164.8351648351647,76.8,
1.6867349271571965E12,0.8802308802308801,1158.2417582417581,76.8,
1.686734927165009E12,0.8784548784548785,1153.113553113553,76.8,
1.6867349271728213E12,0.8802308802308801,1147.985347985348,76.8,
1.6867349271806335E12,0.878010878010878,1143.5897435897434,76.8,
1.686734927188446E12,0.8802308802308801,1141.3919413919414,76.8,
1.6867349271962583E12,0.8775668775668777,1139.194139194139,76.8,
1.6867349272040706E12,0.8802308802308801,1138.4615384615383,76.8,
1.686734927211883E12,0.878010878010878,1142.857142857143,76.8,
1.6867349272196953E12,0.8797868797868797,1148.7179487179487,76.8,
1.6867349272275076E12,0.878010878010878,1154.5787545787546,76.8,
1.68673492723532E12,0.878898878898879,1161.1721611721612,76.8,
1.6867349272431323E12,0.8784548784548785,1166.3003663003662,76.8,
1.6867349272509446E12,0.878898878898879,1171.4285714285713,76.8,
1.686734927258757E12,0.878898878898879,1176.5567765567764,76.8,
1.6867349272665693E12,0.878010878010878,1178.7545787545787,76.8,
1.6867349272743816E12,0.878898878898879,1181.6849816849815,76.8,
1.686734927282194E12,0.8771228771228771,1181.6849816849815,76.8,
1.6867349272900063E12,0.8793428793428792,1186.080586080586,76.8,
1.6867349272978186E12,0.8771228771228771,1189.7435897435896,76.8,
1.686734927305631E12,0.8793428793428792,1191.9413919413919,76.8,
1.6867349273134434E12,0.8771228771228771,1193.4065934065934,76.8,
1.6867349273212556E12,0.8793428793428792,1193.4065934065934,76.8,
1.686734927329068E12,0.8766788766788766,1195.6043956043954,76.8,
1.6867349273368804E12,0.878898878898879,1195.6043956043954,76.8,
1.6867349273446926E12,0.8766788766788766,1195.6043956043954,76.8,
1.6867349273525051E12,0.8784548784548785,1194.8717948717947,76.8,
1.6867349273603174E12,0.8775668775668777,1193.4065934065934,76.8,
1.6867349273681296E12,0.878010878010878,1190.4761904761904,76.8,
1.6867349273759421E12,0.8775668775668777,1189.7435897435896,76.8,
1.6867349273837544E12,0.8775668775668777,1189.0109890109889,76.8,
1.6867349273915667E12,0.878010878010878,1194.8717948717947,76.8,
1.6867349273993792E12,0.8771228771228771,1206.5934065934066,76.8,
1.6867349274071914E12,0.8784548784548785,1226.3736263736264,76.8,
1.6867349274150037E12,0.8762348762348763,1257.8754578754579,76.8,
1.6867349274228162E12,0.8784548784548785,1298.9010989010987,76.8,
1.6867349274306284E12,0.8762348762348763,1350.18315018315,76.8,
1.6867349274384407E12,0.8784548784548785,1411.7216117216117,76.8,
1.6867349274462532E12,0.8757908757908757,1476.923076923077,76.8,
1.6867349274540654E12,0.8784548784548785,1543.5897435897434,76.8,
1.6867349274618777E12,0.8757908757908757,1605.8608058608058,76.8,
1.6867349274696902E12,0.878010878010878,1662.2710622710622,76.8,
1.6867349274775024E12,0.8762348762348763,1709.8901098901097,76.8,
1.6867349274853147E12,0.878010878010878,1748.7179487179485,76.8,
1.6867349274931272E12,0.8766788766788766,1778.021978021978,76.8,
1.6867349275009395E12,0.8771228771228771,1792.6739926739926,76.8,
1.6867349275087517E12,0.8771228771228771,1797.8021978021977,76.8,
1.6867349275165642E12,0.8762348762348763,1791.2087912087911,76.8,
1.6867349275243765E12,0.878010878010878,1775.091575091575,76.8,
1.6867349275321887E12,0.8762348762348763,1754.5787545787546,76.8,
1.6867349275400012E12,0.878010878010878,1726.7399267399267,76.8,
1.6867349275478135E12,0.8753468753468754,1695.970695970696,76.8,
1.6867349275556257E12,0.878010878010878,1662.2710622710622,85.33333333333333,
1.6867349275634382E12,0.8757908757908757,1628.5714285714284,85.33333333333333,
1.6867349275712505E12,0.8775668775668777,1597.8021978021977,85.33333333333333,
1.6867349275790627E12,0.8753468753468754,1567.032967032967,85.33333333333333,
1.6867349275868752E12,0.8775668775668777,1534.7985347985348,85.33333333333333,
1.6867349275946875E12,0.8753468753468754,1506.227106227106,85.33333333333333,
1.6867349276024998E12,0.8771228771228771,1480.5860805860805,85.33333333333333,
1.6867349276103123E12,0.8762348762348763,1457.142857142857,85.33333333333333,
1.6867349276181245E12,0.8766788766788766,1437.3626373626373,85.33333333333333,
1.6867349276259368E12,0.8762348762348763,1413.9194139194137,85.33333333333333,
1.6867349276337493E12,0.8757908757908757,1388.278388278388,85.33333333333333,
1.6867349276415615E12,0.8766788766788766,1364.102564102564,85.33333333333333,
1.6867349276493738E12,0.8753468753468754,1340.6593406593406,85.33333333333333,
1.6867349276571863E12,0.8766788766788766,1320.8791208791208,85.33333333333333,
1.6867349276649985E12,0.8749028749028749,1298.168498168498,85.33333333333333,
1.6867349276728108E12,0.8771228771228771,1277.6556776556777,85.33333333333333,
1.6867349276806233E12,0.8744588744588745,1261.5384615384614,85.33333333333333,
1.6867349276884355E12,0.8771228771228771,1246.153846153846,85.33333333333333,
1.6867349276962478E12,0.8744588744588745,1234.4322344322343,85.33333333333333,
1.6867349277040603E12,0.8766788766788766,1224.1758241758241,85.33333333333333,
1.6867349277118726E12,0.8744588744588745,1218.3150183150183,85.33333333333333,
1.6867349277196848E12,0.8762348762348763,1215.3846153846152,85.33333333333333,
1.6867349277274973E12,0.8744588744588745,1215.3846153846152,85.33333333333333,
1.6867349277353096E12,0.8753468753468754,1219.7802197802198,85.33333333333333,
1.6867349277431218E12,0.8744588744588745,1221.9780219780218,85.33333333333333,
1.6867349277509343E12,0.8749028749028749,1227.8388278388277,85.33333333333333,
1.6867349277587466E12,0.8749028749028749,1234.4322344322343,85.33333333333333,
1.6867349277665588E12,0.8744588744588745,1241.0256410256409,85.33333333333333,
1.6867349277743713E12,0.8753468753468754,1246.8864468864467,85.33333333333333,
1.6867349277821836E12,0.8735708735708736,1251.2820512820513,85.33333333333333,
1.6867349277899958E12,0.8753468753468754,1252.014652014652,85.33333333333333,
1.6867349277978083E12,0.8735708735708736,1250.5494505494505,85.33333333333333,
1.6867349278056206E12,0.8757908757908757,1248.3516483516482,85.33333333333333,
1.6867349278134329E12,0.8731268731268732,1246.8864468864467,85.33333333333333,
1.6867349278212454E12,0.8753468753468754,1245.4212454212454,85.33333333333333,
1.6867349278290576E12,0.8726828726828727,1239.5604395604396,85.33333333333333,
1.6867349278368699E12,0.8749028749028749,1230.03663003663,85.33333333333333,
1.6867349278446824E12,0.8726828726828727,1221.245421245421,85.33333333333333,
1.6867349278524946E12,0.8744588744588745,1213.1868131868132,85.33333333333333,
1.686734927860307E12,0.8735708735708736,1206.5934065934066,85.33333333333333,
1.6867349278681194E12,0.8740148740148739,1197.8021978021977,85.33333333333333,
1.6867349278759316E12,0.8735708735708736,1190.4761904761904,85.33333333333333,
1.686734927883744E12,0.8731268731268732,1183.8827838827838,85.33333333333333,
1.6867349278915564E12,0.8735708735708736,1178.7545787545787,85.33333333333333,
1.6867349278993687E12,0.8726828726828727,1175.0915750915751,85.33333333333333,
1.686734927907181E12,0.8740148740148739,1171.4285714285713,85.33333333333333,
1.6867349279149934E12,0.8722388722388723,1169.9633699633698,85.33333333333333,
1.6867349279228057E12,0.8740148740148739,1168.4981684981685,85.33333333333333,
1.686734927930618E12,0.8717948717948718,1166.3003663003662,85.33333333333333,
1.6867349279384304E12,0.8744588744588745,1165.5677655677655,85.33333333333333,
1.6867349279462427E12,0.8717948717948718,1164.8351648351647,85.33333333333333,
1.686734927954055E12,0.8740148740148739,1167.032967032967,85.33333333333333,
1.6867349279618674E12,0.8717948717948718,1168.4981684981685,85.33333333333333,
1.6867349279696797E12,0.8735708735708736,1170.6959706959706,85.33333333333333,
1.6867349279774922E12,0.8717948717948718,1174.3589743589744,85.33333333333333,
1.6867349279853044E12,0.8726828726828727,1174.3589743589744,85.33333333333333,
1.6867349279931167E12,0.8722388722388723,1174.3589743589744,85.33333333333333,
1.6867349280009292E12,0.8722388722388723,1175.0915750915751,85.33333333333333,
1.6867349280087415E12,0.8726828726828727,1177.2893772893772,85.33333333333333,
1.6867349280165537E12,0.8713508713508713,1178.021978021978,85.33333333333333,
1.6867349280243662E12,0.8726828726828727,1180.2197802197802,85.33333333333333,
1.6867349280321785E12,0.8709068709068709,1180.2197802197802,85.33333333333333,
1.6867349280399907E12,0.8726828726828727,1182.4175824175823,85.33333333333333,
1.6867349280478032E12,0.8704628704628705,1183.8827838827838,85.33333333333333,
1.6867349280556155E12,0.8731268731268732,1188.278388278388,85.33333333333333,
1.6867349280634277E12,0.8704628704628705,1194.8717948717947,85.33333333333333,
1.6867349280712402E12,0.8726828726828727,1199.2673992673992,85.33333333333333,
1.6867349280790525E12,0.8704628704628705,1200.7326007326008,85.33333333333333,
1.6867349280868647E12,0.8726828726828727,1200.0,85.33333333333333,
1.6867349280946772E12,0.8704628704628705,1200.7326007326008,85.33333333333333,
1.6867349281024895E12,0.8722388722388723,1200.7326007326008,85.33333333333333,
1.6867349281103018E12,0.8709068709068709,1198.5347985347985,85.33333333333333,
1.6867349281181143E12,0.8713508713508713,1197.069597069597,85.33333333333333,
1.6867349281259265E12,0.8713508713508713,1194.8717948717947,85.33333333333333,
1.6867349281337388E12,0.8709068709068709,1194.1391941391942,85.33333333333333,
1.6867349281415513E12,0.8717948717948718,1196.3369963369962,85.33333333333333,
1.6867349281493635E12,0.8704628704628705,1200.0,85.33333333333333,
1.6867349281571758E12,0.8717948717948718,1208.7912087912086,85.33333333333333,
1.6867349281649883E12,0.87001887001887,1224.1758241758241,85.33333333333333,
1.6867349281728005E12,0.8722388722388723,1250.5494505494505,85.33333333333333,
1.6867349281806128E12,0.8695748695748695,1287.179487179487,85.33333333333333,
1.6867349281884253E12,0.8722388722388723,1330.4029304029302,85.33333333333333,
1.6867349281962375E12,0.8695748695748695,1382.4175824175823,85.33333333333333,
1.6867349282040498E12,0.8717948717948718,1441.0256410256409,85.33333333333333,
1.6867349282118623E12,0.8695748695748695,1501.8315018315018,85.33333333333333,
1.6867349282196746E12,0.8713508713508713,1560.4395604395604,85.33333333333333,
1.6867349282274868E12,0.8695748695748695,1618.3150183150183,85.33333333333333,
1.6867349282352993E12,0.8713508713508713,1665.9340659340658,85.33333333333333,
1.6867349282431116E12,0.8704628704628705,1702.5641025641025,85.33333333333333,
1.6867349282509238E12,0.8704628704628705,1729.6703296703295,85.33333333333333,
1.6867349282587363E12,0.8709068709068709,1745.054945054945,85.33333333333333,
1.6867349282665486E12,0.87001887001887,1752.3809523809523,85.33333333333333,
1.6867349282743608E12,0.8713508713508713,1747.2527472527472,85.33333333333333,
1.6867349282821733E12,0.8695748695748695,1736.263736263736,85.33333333333333,
1.6867349282899856E12,0.8717948717948718,1720.14652014652,85.33333333333333,
1.6867349282977979E12,0.8691308691308691,1699.6336996336995,85.33333333333333,
1.6867349283056104E12,0.8717948717948718,1679.120879120879,85.33333333333333,
1.6867349283134226E12,0.8691308691308691,1653.4798534798533,90.3529411764706,
1.6867349283212349E12,0.8713508713508713,1627.106227106227,90.3529411764706,
1.6867349283290474E12,0.8691308691308691,1601.4652014652013,90.3529411764706,
1.6867349283368596E12,0.8713508713508713,1576.5567765567764,90.3529411764706,
1.6867349283446719E12,0.8691308691308691,1552.3809523809523,90.3529411764706,
1.6867349283524844E12,0.8709068709068709,1527.4725274725274,90.3529411764706,
1.6867349283602966E12,0.8695748695748695,1503.2967032967033,90.3529411764706,
1.686734928368109E12,0.87001887001887,1479.8534798534797,90.3529411764706,
1.6867349283759214E12,0.87001887001887,1457.8754578754579,90.3529411764706,
1.6867349283837336E12,0.8695748695748695,1438.8278388278388,90.3529411764706,
1.686734928391546E12,0.8704628704628705,1419.047619047619,90.3529411764706,
1.6867349283993584E12,0.8691308691308691,1399.2673992673992,90.3529411764706,
1.6867349284071707E12,0.8704628704628705,1379.4871794871794,90.3529411764706,
1.686734928414983E12,0.8686868686868686,1361.1721611721612,90.3529411764706,
1.6867349284227954E12,0.8709068709068709,1344.3223443223442,90.3529411764706,
1.6867349284306077E12,0.8682428682428683,1327.4725274725274,90.3529411764706,
1.68673492843842E12,0.8709068709068709,1312.087912087912,90.3529411764706,
1.6867349284462324E12,0.8682428682428683,1297.4358974358975,90.3529411764706,
1.6867349284540447E12,0.8709068709068709,1287.9120879120878,90.3529411764706,
1.686734928461857E12,0.8682428682428683,1279.120879120879,90.3529411764706,
1.6867349284696694E12,0.8704628704628705,1276.923076923077,90.3529411764706,
1.6867349284774817E12,0.8686868686868686,1273.260073260073,90.3529411764706,
1.686734928485294E12,0.87001887001887,1274.7252747252746,90.3529411764706,
1.6867349284931064E12,0.8691308691308691,1278.3882783882782,90.3529411764706,
1.6867349285009187E12,0.8691308691308691,1284.2490842490843,90.3529411764706,
1.686734928508731E12,0.8695748695748695,1293.7728937728937,90.3529411764706,
1.6867349285165435E12,0.8686868686868686,1301.8315018315018,90.3529411764706,
1.6867349285243557E12,0.87001887001887,1307.6923076923076,90.3529411764706,
1.686734928532168E12,0.8682428682428683,1312.087912087912,90.3529411764706,
1.6867349285399805E12,0.8704628704628705,1315.018315018315,90.3529411764706,
1.6867349285477927E12,0.8677988677988678,1318.6813186813185,90.3529411764706,
1.686734928555605E12,0.8704628704628705,1316.4835164835165,90.3529411764706,
1.6867349285634175E12,0.8677988677988678,1311.3553113553112,90.3529411764706,
1.6867349285712297E12,0.8704628704628705,1301.098901098901,90.3529411764706,
1.686734928579042E12,0.8682428682428683,1293.040293040293,90.3529411764706,
1.6867349285868545E12,0.87001887001887,1284.9816849816848,90.3529411764706,
1.6867349285946667E12,0.8682428682428683,1274.7252747252746,90.3529411764706,
1.686734928602479E12,0.8695748695748695,1263.7362637362637,90.3529411764706,
1.6867349286102915E12,0.8686868686868686,1253.4798534798533,90.3529411764706,
1.6867349286181038E12,0.8691308691308691,1243.2234432234432,90.3529411764706,
1.686734928625916E12,0.8691308691308691,1235.164835164835,90.3529411764706,
1.6867349286337285E12,0.8686868686868686,1225.6410256410256,90.3529411764706,
1.6867349286415408E12,0.8691308691308691,1216.8498168498168,90.3529411764706,
1.686734928649353E12,0.8677988677988678,1210.989010989011,90.3529411764706,
1.6867349286571655E12,0.8695748695748695,1208.7912087912086,90.3529411764706,
1.6867349286649778E12,0.8677988677988678,1207.3260073260074,90.3529411764706,
1.68673492867279E12,0.87001887001887,1210.2564102564102,90.3529411764706,
1.6867349286806025E12,0.8677988677988678,1209.5238095238094,90.3529411764706,
1.6867349286884148E12,0.87001887001887,1212.4542124542124,90.3529411764706,
1.686734928696227E12,0.8673548673548673,1215.3846153846152,90.3529411764706,
1.6867349287040396E12,0.87001887001887,1219.047619047619,90.3529411764706,
1.6867349287118518E12,0.8677988677988678,1224.1758241758241,90.3529411764706,
1.686734928719664E12,0.8695748695748695,1228.5714285714284,90.3529411764706,
1.6867349287274766E12,0.8682428682428683,1230.7692307692307,90.3529411764706,
1.6867349287352888E12,0.8691308691308691,1232.967032967033,90.3529411764706,
1.686734928743101E12,0.8686868686868686,1233.6996336996335,90.3529411764706,
1.6867349287509136E12,0.8686868686868686,1238.095238095238,90.3529411764706,
1.6867349287587258E12,0.8691308691308691,1241.7582417582416,90.3529411764706,
1.686734928766538E12,0.8682428682428683,1244.6886446886447,90.3529411764706,
1.6867349287743506E12,0.8695748695748695,1248.3516483516482,90.3529411764706,
1.6867349287821628E12,0.8677988677988678,1252.014652014652,90.3529411764706,
1.686734928789975E12,0.87001887001887,1257.142857142857,90.3529411764706,
1.6867349287977876E12,0.8677988677988678,1260.07326007326,90.3529411764706,
1.6867349288055999E12,0.87001887001887,1262.2710622710622,90.3529411764706,
1.686734928813412E12,0.8673548673548673,1263.7362637362637,90.3529411764706,
1.6867349288212246E12,0.8704628704628705,1265.9340659340658,90.3529411764706,
1.6867349288290369E12,0.8677988677988678,1271.7948717948716,90.3529411764706,
1.686734928836849E12,0.87001887001887,1276.923076923077,90.3529411764706,
1.6867349288446616E12,0.8677988677988678,1287.179487179487,90.3529411764706,
1.6867349288524739E12,0.8695748695748695,1303.2967032967033,90.3529411764706,
1.6867349288602861E12,0.8686868686868686,1329.6703296703297,90.3529411764706,
1.6867349288680986E12,0.8691308691308691,1366.3003663003662,90.3529411764706,
1.686734928875911E12,0.8691308691308691,1412.4542124542124,90.3529411764706,
1.6867349288837231E12,0.8686868686868686,1461.5384615384614,90.3529411764706,
1.6867349288915356E12,0.8695748695748695,1515.7509157509157,90.3529411764706,
1.686734928899348E12,0.8686868686868686,1569.230769230769,90.3529411764706,
1.6867349289071602E12,0.87001887001887,1618.3150183150183,90.3529411764706,
1.6867349289149727E12,0.8682428682428683,1665.9340659340658,90.3529411764706,
1.686734928922785E12,0.8704628704628705,1702.5641025641025,90.3529411764706,
1.6867349289305972E12,0.8677988677988678,1731.135531135531,90.3529411764706,
1.6867349289384097E12,0.8704628704628705,1751.6483516483515,90.3529411764706,
1.686734928946222E12,0.8677988677988678,1761.172161172161,90.3529411764706,
1.6867349289540342E12,0.8704628704628705,1763.3699633699632,90.3529411764706,
1.6867349289618467E12,0.8682428682428683,1755.311355311355,90.3529411764706,
1.686734928969659E12,0.87001887001887,1740.6593406593406,90.3529411764706,
1.6867349289774712E12,0.8686868686868686,1718.6813186813185,90.3529411764706,
1.6867349289852837E12,0.87001887001887,1694.5054945054944,90.3529411764706,
1.686734928993096E12,0.8695748695748695,1668.8644688644688,90.3529411764706,
1.6867349290009082E12,0.8691308691308691,1639.5604395604394,90.3529411764706,
1.6867349290087207E12,0.8695748695748695,1611.7216117216117,90.3529411764706,
1.686734929016533E12,0.8686868686868686,1586.080586080586,90.3529411764706,
1.6867349290243452E12,0.87001887001887,1564.102564102564,90.3529411764706,
1.6867349290321577E12,0.8686868686868686,1545.7875457875457,90.3529411764706,
1.68673492903997E12,0.8709068709068709,1526.007326007326,90.3529411764706,
1.6867349290477822E12,0.8686868686868686,1506.9597069597069,90.3529411764706,
1.6867349290555947E12,0.8709068709068709,1488.6446886446886,90.3529411764706,
1.686734929063407E12,0.8682428682428683,1468.131868131868,90.3529411764706,
1.6867349290712192E12,0.8709068709068709,1449.8168498168498,79.17525773195877,
1.6867349290790317E12,0.8686868686868686,1429.3040293040292,79.17525773195877,
1.686734929086844E12,0.8709068709068709,1408.058608058608,79.17525773195877,
1.6867349290946562E12,0.8686868686868686,1388.278388278388,79.17525773195877,
1.6867349291024688E12,0.8704628704628705,1367.7655677655678,79.17525773195877,
1.686734929110281E12,0.8695748695748695,1350.18315018315,79.17525773195877,
1.6867349291180933E12,0.8695748695748695,1338.4615384615383,79.17525773195877,
1.6867349291259058E12,0.87001887001887,1328.937728937729,79.17525773195877,
1.686734929133718E12,0.8691308691308691,1323.076923076923,79.17525773195877,
1.6867349291415303E12,0.8704628704628705,1318.6813186813185,79.17525773195877,
1.6867349291493428E12,0.8691308691308691,1317.216117216117,79.17525773195877,
1.686734929157155E12,0.8704628704628705,1319.4139194139193,79.17525773195877,
1.6867349291649673E12,0.8686868686868686,1320.8791208791208,79.17525773195877,
1.6867349291727798E12,0.8709068709068709,1324.5421245421244,79.17525773195877,
1.686734929180592E12,0.8686868686868686,1328.937728937729,79.17525773195877,
1.6867349291884043E12,0.8713508713508713,1332.6007326007325,79.17525773195877,
1.6867349291962168E12,0.8691308691308691,1336.9963369963368,79.17525773195877,
1.686734929204029E12,0.8713508713508713,1339.194139194139,79.17525773195877,
1.6867349292118413E12,0.8691308691308691,1339.194139194139,79.17525773195877,
1.6867349292196538E12,0.8713508713508713,1339.9267399267399,79.17525773195877,
1.686734929227466E12,0.8695748695748695,1339.9267399267399,79.17525773195877,
1.6867349292352783E12,0.8704628704628705,1338.4615384615383,79.17525773195877,
1.6867349292430908E12,0.8704628704628705,1332.6007326007325,79.17525773195877,
1.686734929250903E12,0.8704628704628705,1323.8095238095236,79.17525773195877,
1.6867349292587153E12,0.8709068709068709,1314.2857142857142,79.17525773195877,
1.6867349292665278E12,0.87001887001887,1303.2967032967033,79.17525773195877,
1.68673492927434E12,0.8713508713508713,1294.5054945054944,79.17525773195877,
1.6867349292821523E12,0.8695748695748695,1281.3186813186812,79.17525773195877,
1.6867349292899648E12,0.8717948717948718,1268.8644688644688,79.17525773195877,
1.686734929297777E12,0.8695748695748695,1255.6776556776556,79.17525773195877,
1.6867349293055894E12,0.8717948717948718,1242.4908424908424,79.17525773195877,
1.6867349293134019E12,0.8695748695748695,1232.967032967033,79.17525773195877,
1.686734929321214E12,0.8717948717948718,1227.8388278388277,79.17525773195877,
1.6867349293290264E12,0.8695748695748695,1220.5128205128203,79.17525773195877,
1.6867349293368389E12,0.8717948717948718,1213.9194139194137,79.17525773195877,
1.6867349293446511E12,0.87001887001887,1206.5934065934066,79.17525773195877,
1.6867349293524634E12,0.8713508713508713,1200.0,79.17525773195877,
1.686734929360276E12,0.8704628704628705,1198.5347985347985,79.17525773195877,
1.6867349293680881E12,0.8709068709068709,1196.3369963369962,79.17525773195877,
1.6867349293759004E12,0.8713508713508713,1195.6043956043954,79.17525773195877,
1.686734929383713E12,0.8704628704628705,1197.8021978021977,79.17525773195877,
1.6867349293915251E12,0.8717948717948718,1200.7326007326008,79.17525773195877,
1.6867349293993374E12,0.8704628704628705,1206.5934065934066,79.17525773195877,
1.68673492940715E12,0.8722388722388723,1210.989010989011,79.17525773195877,
1.6867349294149622E12,0.87001887001887,1214.6520146520145,79.17525773195877,
1.6867349294227744E12,0.8722388722388723,1218.3150183150183,79.17525773195877,
1.686734929430587E12,0.87001887001887,1221.9780219780218,79.17525773195877,
1.6867349294383992E12,0.8726828726828727,1227.8388278388277,79.17525773195877,
1.6867349294462114E12,0.87001887001887,1231.5018315018315,79.17525773195877,
1.686734929454024E12,0.8722388722388723,1235.8974358974358,79.17525773195877,
1.6867349294618362E12,0.8704628704628705,1240.2930402930401,79.17525773195877,
1.6867349294696484E12,0.8722388722388723,1242.4908424908424,79.17525773195877,
1.686734929477461E12,0.8709068709068709,1246.153846153846,79.17525773195877,
1.6867349294852732E12,0.8717948717948718,1246.8864468864467,79.17525773195877,
1.6867349294930854E12,0.8717948717948718,1246.8864468864467,79.17525773195877,
1.686734929500898E12,0.8713508713508713,1246.8864468864467,79.17525773195877,
1.6867349295087102E12,0.8722388722388723,1249.8168498168498,79.17525773195877,
1.6867349295165225E12,0.8709068709068709,1259.3406593406592,79.17525773195877,
1.686734929524335E12,0.8726828726828727,1270.3296703296703,79.17525773195877,
1.6867349295321472E12,0.8709068709068709,1287.9120879120878,79.17525773195877,
1.6867349295399595E12,0.8726828726828727,1313.5531135531135,79.17525773195877,
1.686734929547772E12,0.8709068709068709,1349.4505494505493,79.17525773195877,
1.6867349295555842E12,0.8731268731268732,1393.4065934065934,79.17525773195877,
1.6867349295633965E12,0.8709068709068709,1444.6886446886447,79.17525773195877,
1.686734929571209E12,0.8735708735708736,1497.4358974358972,79.17525773195877,
1.6867349295790212E12,0.8709068709068709,1552.3809523809523,79.17525773195877,
1.6867349295868335E12,0.8735708735708736,1606.5934065934066,79.17525773195877,
1.686734929594646E12,0.8717948717948718,1656.4102564102564,79.17525773195877,
1.6867349296024583E12,0.8731268731268732,1702.5641025641025,79.17525773195877,
1.6867349296102705E12,0.8722388722388723,1739.9267399267399,79.17525773195877,
1.686734929618083E12,0.8726828726828727,1768.4981684981683,79.17525773195877,
1.6867349296258953E12,0.8726828726828727,1787.5457875457873,79.17525773195877,
1.6867349296337075E12,0.8722388722388723,1799.2673992673992,79.17525773195877,
1.68673492964152E12,0.8731268731268732,1804.3956043956043,79.17525773195877,
1.6867349296493323E12,0.8722388722388723,1801.4652014652013,79.17525773195877,
1.6867349296571445E12,0.8740148740148739,1791.2087912087911,79.17525773195877,
1.686734929664957E12,0.8717948717948718,1776.5567765567764,79.17525773195877,
1.6867349296727693E12,0.8744588744588745,1757.5091575091574,79.17525773195877,
1.6867349296805815E12,0.8722388722388723,1737.7289377289376,79.17525773195877,
1.686734929688394E12,0.8749028749028749,1715.018315018315,79.17525773195877,
1.6867349296962063E12,0.8717948717948718,1692.3076923076922,79.17525773195877,
1.6867349297040186E12,0.8744588744588745,1668.8644688644688,79.17525773195877,
1.686734929711831E12,0.8726828726828727,1644.6886446886447,79.17525773195877,
1.6867349297196433E12,0.8744588744588745,1624.1758241758241,79.17525773195877,
1.6867349297274556E12,0.8731268731268732,1602.197802197802,79.17525773195877,
1.686734929735268E12,0.8740148740148739,1583.8827838827838,79.17525773195877,
1.6867349297430803E12,0.8740148740148739,1568.4981684981683,79.17525773195877,
1.6867349297508926E12,0.8740148740148739,1555.311355311355,79.17525773195877,
1.686734929758705E12,0.8744588744588745,1542.1245421245421,79.17525773195877,
1.6867349297665173E12,0.8735708735708736,1529.6703296703295,79.17525773195877,
1.6867349297743296E12,0.8749028749028749,1512.8205128205127,79.17525773195877,
1.686734929782142E12,0.8731268731268732,1495.2380952380952,79.17525773195877,
1.6867349297899543E12,0.8757908757908757,1476.1904761904761,79.17525773195877,
1.6867349297977666E12,0.8731268731268732,1455.6776556776556,79.17525773195877,
1.686734929805579E12,0.8757908757908757,1438.8278388278388,79.17525773195877,
1.6867349298133914E12,0.8735708735708736,1419.7802197802198,79.17525773195877,
1.6867349298212036E12,0.8762348762348763,1400.7326007326005,79.17525773195877,
1.686734929829016E12,0.8740148740148739,1383.150183150183,79.17525773195877,
1.6867349298368284E12,0.8762348762348763,1369.230769230769,79.17525773195877,
1.6867349298446406E12,0.8744588744588745,1361.1721611721612,79.17525773195877,
1.6867349298524531E12,0.8762348762348763,1354.5787545787546,79.17525773195877,
1.6867349298602654E12,0.8749028749028749,1352.3809523809523,79.17525773195877,
1.6867349298680776E12,0.8753468753468754,1353.113553113553,79.17525773195877,
1.6867349298758901E12,0.8757908757908757,1354.5787545787546,79.17525773195877,
1.6867349298837024E12,0.8753468753468754,1358.2417582417581,79.17525773195877,
1.6867349298915146E12,0.8762348762348763,1360.4395604395604,79.17525773195877,
1.6867349298993271E12,0.8749028749028749,1364.102564102564,79.17525773195877,
1.6867349299071394E12,0.8771228771228771,1367.7655677655678,79.17525773195877,
1.6867349299149517E12,0.8749028749028749,1371.4285714285713,79.17525773195877,
1.6867349299227642E12,0.8771228771228771,1375.091575091575,79.17525773195877,
1.6867349299305764E12,0.8749028749028749,1376.5567765567764,79.17525773195877,
1.6867349299383887E12,0.8775668775668777,1374.3589743589744,79.17525773195877,
1.6867349299462012E12,0.8753468753468754,1369.9633699633698,79.17525773195877,
1.6867349299540134E12,0.8775668775668777,1363.3699633699632,79.17525773195877,
1.6867349299618257E12,0.8757908757908757,1355.3113553113553,79.17525773195877,
1.6867349299696382E12,0.8775668775668777,1346.5201465201465,79.17525773195877,
1.6867349299774504E12,0.8762348762348763,1334.7985347985348,79.17525773195877,
1.6867349299852627E12,0.8771228771228771,1323.076923076923,79.17525773195877,
1.6867349299930752E12,0.8771228771228771,1313.5531135531135,79.17525773195877,
1.6867349300008875E12,0.8771228771228771,1306.9597069597069,79.17525773195877,
1.6867349300086997E12,0.8775668775668777,1300.3663003663003,79.17525773195877,
1.6867349300165122E12,0.8766788766788766,1288.6446886446886,79.17525773195877,
1.6867349300243245E12,0.878010878010878,1278.3882783882782,79.17525773195877,
1.6867349300321367E12,0.8766788766788766,1268.131868131868,79.17525773195877,
1.6867349300399492E12,0.878898878898879,1260.07326007326,79.17525773195877,
1.6867349300477615E12,0.8766788766788766,1252.7472527472526,79.17525773195877,
1.6867349300555737E12,0.8793428793428792,1245.4212454212454,79.17525773195877,
1.6867349300633862E12,0.8766788766788766,1237.3626373626373,79.17525773195877,
1.6867349300711985E12,0.8793428793428792,1232.2344322344322,79.17525773195877,
1.6867349300790107E12,0.8771228771228771,1227.106227106227,79.17525773195877,
1.6867349300868232E12,0.8793428793428792,1224.9084249084249,79.17525773195877,
1.6867349300946355E12,0.8775668775668777,1218.3150183150183,79.17525773195877,
1.6867349301024478E12,0.878898878898879,1215.3846153846152,79.17525773195877,
1.6867349301102603E12,0.8784548784548785,1213.9194139194137,79.17525773195877,
1.6867349301180725E12,0.878898878898879,1215.3846153846152,79.17525773195877,
1.6867349301258848E12,0.8793428793428792,1216.117216117216,79.17525773195877,
1.6867349301336973E12,0.878898878898879,1213.1868131868132,79.17525773195877,
1.6867349301415095E12,0.8797868797868797,1211.7216117216117,79.17525773195877,
1.6867349301493218E12,0.878898878898879,1210.989010989011,79.17525773195877,
1.6867349301571343E12,0.8806748806748805,1209.5238095238094,79.17525773195877,
1.6867349301649465E12,0.878898878898879,1210.2564102564102,79.17525773195877,
1.6867349301727588E12,0.881118881118881,1208.7912087912086,79.17525773195877,
1.6867349301805713E12,0.878898878898879,1208.7912087912086,79.17525773195877,
1.6867349301883835E12,0.8815628815628815,1210.2564102564102,79.17525773195877,
1.6867349301961958E12,0.8793428793428792,1211.7216117216117,79.17525773195877,
1.6867349302040083E12,0.8820068820068818,1213.1868131868132,79.17525773195877,
1.6867349302118206E12,0.8802308802308801,1218.3150183150183,79.17525773195877,
1.6867349302196328E12,0.8820068820068818,1221.245421245421,79.17525773195877,
1.6867349302274453E12,0.8806748806748805,1224.1758241758241,79.17525773195877,
1.6867349302352576E12,0.8815628815628815,1226.3736263736264,79.17525773195877,
1.6867349302430698E12,0.8815628815628815,1227.8388278388277,79.17525773195877,
1.6867349302508823E12,0.8815628815628815,1232.2344322344322,79.17525773195877,
1.6867349302586946E12,0.8824508824508824,1233.6996336996335,79.17525773195877,
1.6867349302665068E12,0.881118881118881,1238.8278388278388,79.17525773195877,
1.6867349302743193E12,0.8828948828948829,1248.3516483516482,79.17525773195877,
1.6867349302821316E12,0.8815628815628815,1263.7362637362637,79.17525773195877,
1.6867349302899438E12,0.8837828837828837,1287.179487179487,79.17525773195877,
1.6867349302977563E12,0.8815628815628815,1317.9487179487178,79.17525773195877,
1.6867349303055686E12,0.8842268842268842,1359.7069597069597,79.17525773195877,
1.6867349303133809E12,0.8820068820068818,1410.2564102564102,79.17525773195877,
1.6867349303211934E12,0.8846708846708846,1469.5970695970695,79.17525773195877,
1.6867349303290056E12,0.8824508824508824,1534.065934065934,79.17525773195877,
1.6867349303368179E12,0.8846708846708846,1595.6043956043954,79.17525773195877,
1.6867349303446304E12,0.8833388833388832,1655.6776556776556,79.17525773195877,
1.6867349303524426E12,0.8846708846708846,1713.5531135531135,79.17525773195877,
1.686734930360255E12,0.8842268842268842,1762.6373626373625,79.17525773195877,
1.6867349303680674E12,0.8846708846708846,1805.8608058608058,79.17525773195877,
1.6867349303758796E12,0.885114885114885,1837.3626373626373,79.17525773195877,
1.686734930383692E12,0.8846708846708846,1860.07326007326,79.17525773195877,
1.6867349303915044E12,0.8860028860028859,1874.7252747252746,79.17525773195877,
1.6867349303993167E12,0.8846708846708846,1880.5860805860805,79.17525773195877,
1.686734930407129E12,0.8868908868908869,1880.5860805860805,79.17525773195877,
1.6867349304149414E12,0.885114885114885,1874.7252747252746,79.17525773195877,
1.6867349304227537E12,0.8873348873348873,1860.07326007326,79.17525773195877,
1.686734930430566E12,0.885114885114885,1841.7582417582416,79.17525773195877,
1.6867349304383784E12,0.8877788877788876,1819.7802197802196,79.17525773195877,
1.6867349304461907E12,0.8855588855588855,1795.6043956043954,88.27586206896552,
1.686734930454003E12,0.8882228882228881,1773.6263736263736,88.27586206896552,
1.6867349304618154E12,0.8860028860028859,1748.7179487179485,88.27586206896552,
1.6867349304696277E12,0.8877788877788876,1726.7399267399267,88.27586206896552,
1.68673493047744E12,0.8868908868908869,1704.7619047619046,88.27586206896552,
1.6867349304852524E12,0.8877788877788876,1682.051282051282,88.27586206896552,
1.6867349304930647E12,0.8877788877788876,1663.7362637362637,88.27586206896552,
1.686734930500877E12,0.8873348873348873,1643.956043956044,88.27586206896552,
1.6867349305086895E12,0.8882228882228881,1621.245421245421,88.27586206896552,
1.6867349305165017E12,0.8873348873348873,1599.2673992673992,88.27586206896552,
1.686734930524314E12,0.889110889110889,1576.5567765567764,88.27586206896552,
1.6867349305321265E12,0.8868908868908869,1555.311355311355,88.27586206896552,
1.6867349305399387E12,0.8895548895548894,1531.8681318681317,88.27586206896552,
1.686734930547751E12,0.8873348873348873,1507.6923076923076,88.27586206896552,
1.6867349305555635E12,0.88999888999889,1482.7838827838827,88.27586206896552,
1.6867349305633757E12,0.8873348873348873,1460.07326007326,88.27586206896552,
1.686734930571188E12,0.88999888999889,1441.7582417582416,88.27586206896552,
1.6867349305790005E12,0.8877788877788876,1421.9780219780218,88.27586206896552,
1.6867349305868127E12,0.88999888999889,1405.128205128205,88.27586206896552,
1.686734930594625E12,0.8882228882228881,1390.4761904761904,88.27586206896552,
1.6867349306024375E12,0.88999888999889,1380.952380952381,88.27586206896552,
1.6867349306102498E12,0.889110889110889,1374.3589743589744,88.27586206896552,
1.686734930618062E12,0.8895548895548894,1365.5677655677655,88.27586206896552,
1.6867349306258745E12,0.88999888999889,1360.4395604395604,88.27586206896552,
1.6867349306336868E12,0.889110889110889,1357.5091575091574,88.27586206896552,
1.686734930641499E12,0.8904428904428906,1353.8461538461538,88.27586206896552,
1.6867349306493115E12,0.889110889110889,1353.113553113553,88.27586206896552,
1.6867349306571238E12,0.890886890886891,1353.8461538461538,88.27586206896552,
1.686734930664936E12,0.8886668886668886,1350.18315018315,88.27586206896552,
1.6867349306727485E12,0.8913308913308914,1345.7875457875457,88.27586206896552,
1.6867349306805608E12,0.889110889110889,1340.6593406593406,88.27586206896552,
1.686734930688373E12,0.8913308913308914,1333.3333333333333,88.27586206896552,
1.6867349306961855E12,0.889110889110889,1325.2747252747251,88.27586206896552,
1.6867349307039978E12,0.8913308913308914,1312.087912087912,88.27586206896552,
1.68673493071181E12,0.8895548895548894,1300.3663003663003,88.27586206896552,
1.6867349307196226E12,0.8913308913308914,1289.3772893772893,88.27586206896552,
1.6867349307274348E12,0.88999888999889,1279.120879120879,88.27586206896552,
1.686734930735247E12,0.8913308913308914,1271.062271062271,88.27586206896552,
1.6867349307430596E12,0.890886890886891,1260.8058608058607,88.27586206896552,
1.6867349307508718E12,0.890886890886891,1252.014652014652,88.27586206896552,
1.686734930758684E12,0.8917748917748918,1243.956043956044,88.27586206896552,
1.6867349307664966E12,0.890886890886891,1236.6300366300366,88.27586206896552,
1.6867349307743088E12,0.8922188922188924,1230.7692307692307,88.27586206896552,
1.686734930782121E12,0.8904428904428906,1224.9084249084249,88.27586206896552,
1.6867349307899336E12,0.8926628926628928,1220.5128205128203,88.27586206896552,
1.6867349307977458E12,0.8904428904428906,1216.8498168498168,88.27586206896552,
1.686734930805558E12,0.8931068931068932,1213.9194139194137,88.27586206896552,
1.6867349308133706E12,0.890886890886891,1212.4542124542124,88.27586206896552,
1.6867349308211829E12,0.8935508935508937,1207.3260073260074,88.27586206896552,
1.686734930828995E12,0.8913308913308914,1203.6630036630036,88.27586206896552,
1.6867349308368076E12,0.8931068931068932,1199.2673992673992,88.27586206896552,
1.6867349308446199E12,0.8913308913308914,1197.069597069597,88.27586206896552,
1.6867349308524321E12,0.8931068931068932,1197.069597069597,88.27586206896552,
1.6867349308602446E12,0.8922188922188924,1199.2673992673992,88.27586206896552,
1.686734930868057E12,0.8926628926628928,1198.5347985347985,88.27586206896552,
1.6867349308758691E12,0.8931068931068932,1199.2673992673992,88.27586206896552,
1.6867349308836816E12,0.8922188922188924,1203.6630036630036,88.27586206896552,
1.686734930891494E12,0.8935508935508937,1209.5238095238094,88.27586206896552,
1.6867349308993062E12,0.8922188922188924,1217.5824175824175,88.27586206896552,
1.6867349309071187E12,0.8939948939948941,1220.5128205128203,88.27586206896552,
1.686734930914931E12,0.8917748917748918,1224.1758241758241,88.27586206896552,
1.6867349309227432E12,0.8944388944388945,1227.106227106227,88.27586206896552,
1.6867349309305557E12,0.8922188922188924,1231.5018315018315,88.27586206896552,
1.686734930938368E12,0.894882894882895,1237.3626373626373,88.27586206896552,
1.6867349309461802E12,0.8922188922188924,1239.5604395604396,88.27586206896552,
1.6867349309539927E12,0.8944388944388945,1241.7582417582416,88.27586206896552,
1.686734930961805E12,0.8926628926628928,1243.956043956044,88.27586206896552,
1.6867349309696174E12,0.8944388944388945,1244.6886446886447,88.27586206896552,
1.6867349309774297E12,0.8935508935508937,1247.6190476190475,88.27586206896552,
1.686734930985242E12,0.8939948939948941,1245.4212454212454,88.27586206896552,
1.6867349309930544E12,0.8939948939948941,1242.4908424908424,88.27586206896552,
1.6867349310008667E12,0.8939948939948941,1238.8278388278388,88.27586206896552,
1.686734931008679E12,0.894882894882895,1235.8974358974358,88.27586206896552,
1.6867349310164915E12,0.8935508935508937,1232.967032967033,88.27586206896552,
1.6867349310243037E12,0.8953268953268955,1229.3040293040292,88.27586206896552,
1.686734931032116E12,0.8935508935508937,1226.3736263736264,88.27586206896552,
1.6867349310399285E12,0.8957708957708957,1228.5714285714284,88.27586206896552,
1.6867349310477407E12,0.8935508935508937,1235.8974358974358,88.27586206896552,
1.686734931055553E12,0.8962148962148963,1249.8168498168498,88.27586206896552,
1.6867349310633655E12,0.8935508935508937,1273.260073260073,88.27586206896552,
1.6867349310711777E12,0.8962148962148963,1303.2967032967033,88.27586206896552,
1.68673493107899E12,0.8939948939948941,1345.054945054945,88.27586206896552,
1.6867349310868025E12,0.8962148962148963,1397.069597069597,88.27586206896552,
1.6867349310946147E12,0.8944388944388945,1454.9450549450548,88.27586206896552,
1.686734931102427E12,0.8957708957708957,1520.8791208791208,88.27586206896552,
1.6867349311102395E12,0.894882894882895,1583.8827838827838,88.27586206896552,
1.6867349311180518E12,0.894882894882895,1643.956043956044,88.27586206896552,
1.686734931125864E12,0.8957708957708957,1698.9010989010987,88.27586206896552,
1.6867349311336765E12,0.894882894882895,1745.054945054945,88.27586206896552,
1.6867349311414888E12,0.8962148962148963,1783.150183150183,88.27586206896552,
1.686734931149301E12,0.894882894882895,1806.5934065934064,88.27586206896552,
1.6867349311571135E12,0.8966588966588968,1819.047619047619,88.27586206896552,
1.6867349311649258E12,0.8944388944388945,1819.047619047619,88.27586206896552,
1.686734931172738E12,0.8966588966588968,1808.7912087912086,88.27586206896552,
1.6867349311805505E12,0.8944388944388945,1789.7435897435896,88.27586206896552,
1.6867349311883628E12,0.8966588966588968,1761.9047619047617,88.27586206896552,
1.686734931196175E12,0.8944388944388945,1728.937728937729,88.27586206896552,
1.6867349312039875E12,0.8966588966588968,1695.2380952380952,86.29213483146067,
1.6867349312117998E12,0.894882894882895,1657.8754578754579,86.29213483146067,
1.686734931219612E12,0.8966588966588968,1621.9780219780218,86.29213483146067,
1.6867349312274246E12,0.8953268953268955,1584.6153846153845,86.29213483146067,
1.6867349312352368E12,0.8957708957708957,1550.9157509157508,86.29213483146067,
1.686734931243049E12,0.8957708957708957,1523.0769230769229,86.29213483146067,
1.6867349312508616E12,0.8957708957708957,1497.4358974358972,86.29213483146067,
1.6867349312586738E12,0.8966588966588968,1476.1904761904761,86.29213483146067,
1.686734931266486E12,0.8953268953268955,1452.014652014652,86.29213483146067,
1.6867349312742986E12,0.8971028971028971,1428.5714285714284,86.29213483146067,
1.6867349312821108E12,0.894882894882895,1409.5238095238094,86.29213483146067,
1.686734931289923E12,0.8971028971028971,1393.4065934065934,86.29213483146067,
1.6867349312977356E12,0.894882894882895,1378.021978021978,86.29213483146067,
1.6867349313055479E12,0.8975468975468975,1364.8351648351647,86.29213483146067,
1.68673493131336E12,0.894882894882895,1350.18315018315,86.29213483146067,
1.6867349313211726E12,0.8971028971028971,1336.9963369963368,86.29213483146067,
1.6867349313289849E12,0.894882894882895,1326.007326007326,86.29213483146067,
1.686734931336797E12,0.8971028971028971,1317.216117216117,86.29213483146067,
1.6867349313446096E12,0.8953268953268955,1313.5531135531135,86.29213483146067,
1.6867349313524219E12,0.8966588966588968,1310.6227106227104,86.29213483146067,
1.6867349313602341E12,0.8957708957708957,1310.6227106227104,86.29213483146067,
1.6867349313680466E12,0.8957708957708957,1313.5531135531135,86.29213483146067,
1.686734931375859E12,0.8962148962148963,1317.9487179487178,86.29213483146067,
1.6867349313836711E12,0.8953268953268955,1326.007326007326,86.29213483146067,
1.6867349313914836E12,0.8962148962148963,1334.065934065934,86.29213483146067,
1.686734931399296E12,0.894882894882895,1341.3919413919414,86.29213483146067,
1.6867349314071082E12,0.8966588966588968,1347.2527472527472,86.29213483146067,
1.6867349314149207E12,0.8944388944388945,1352.3809523809523,86.29213483146067,
1.686734931422733E12,0.8966588966588968,1357.5091575091574,86.29213483146067,
1.6867349314305452E12,0.8944388944388945,1360.4395604395604,86.29213483146067,
1.6867349314383577E12,0.8966588966588968,1363.3699633699632,86.29213483146067,
1.68673493144617E12,0.8944388944388945,1364.102564102564,86.29213483146067,
1.6867349314539822E12,0.8966588966588968,1362.6373626373625,86.29213483146067,
1.6867349314617947E12,0.8944388944388945,1361.904761904762,86.29213483146067,
1.686734931469607E12,0.8962148962148963,1356.7765567765566,86.29213483146067,
1.6867349314774192E12,0.8944388944388945,1350.9157509157508,86.29213483146067,
1.6867349314852317E12,0.8953268953268955,1345.7875457875457,86.29213483146067,
1.686734931493044E12,0.894882894882895,1338.4615384615383,86.29213483146067,
1.6867349315008562E12,0.8944388944388945,1330.4029304029302,86.29213483146067,
1.6867349315086687E12,0.8953268953268955,1325.2747252747251,86.29213483146067,
1.686734931516481E12,0.8939948939948941,1316.4835164835165,86.29213483146067,
1.6867349315242932E12,0.8953268953268955,1307.6923076923076,86.29213483146067,
1.6867349315321057E12,0.8935508935508937,1300.3663003663003,86.29213483146067,
1.686734931539918E12,0.8957708957708957,1294.5054945054944,86.29213483146067,
1.6867349315477302E12,0.8931068931068932,1290.10989010989,86.29213483146067,
1.6867349315555427E12,0.8953268953268955,1282.7838827838827,86.29213483146067,
1.686734931563355E12,0.8926628926628928,1277.6556776556777,86.29213483146067,
1.6867349315711672E12,0.894882894882895,1273.9926739926739,86.29213483146067,
1.6867349315789797E12,0.8926628926628928,1269.5970695970695,86.29213483146067,
1.686734931586792E12,0.8944388944388945,1268.131868131868,86.29213483146067,
1.6867349315946042E12,0.8926628926628928,1263.003663003663,86.29213483146067,
1.6867349316024167E12,0.8935508935508937,1257.142857142857,86.29213483146067,
1.686734931610229E12,0.8931068931068932,1253.4798534798533,86.29213483146067,
1.6867349316180413E12,0.8935508935508937,1252.014652014652,86.29213483146067,
1.6867349316258538E12,0.8931068931068932,1252.7472527472526,86.29213483146067,
1.686734931633666E12,0.8922188922188924,1250.5494505494505,86.29213483146067,
1.6867349316414783E12,0.8935508935508937,1249.084249084249,86.29213483146067,
1.6867349316492908E12,0.8917748917748918,1246.8864468864467,86.29213483146067,
1.686734931657103E12,0.8935508935508937,1243.956043956044,86.29213483146067,
1.6867349316649153E12,0.8913308913308914,1241.0256410256409,86.29213483146067,
1.6867349316727278E12,0.8931068931068932,1238.095238095238,86.29213483146067,
1.68673493168054E12,0.890886890886891,1236.6300366300366,86.29213483146067,
1.6867349316883523E12,0.8931068931068932,1234.4322344322343,86.29213483146067,
1.6867349316961648E12,0.8904428904428906,1232.2344322344322,86.29213483146067,
1.686734931703977E12,0.8926628926628928,1233.6996336996335,86.29213483146067,
1.6867349317117893E12,0.890886890886891,1232.967032967033,86.29213483146067,
1.6867349317196018E12,0.8922188922188924,1233.6996336996335,86.29213483146067,
1.686734931727414E12,0.890886890886891,1238.095238095238,86.29213483146067,
1.6867349317352263E12,0.8913308913308914,1246.153846153846,86.29213483146067,
1.6867349317430388E12,0.8913308913308914,1262.2710622710622,86.29213483146067,
1.686734931750851E12,0.890886890886891,1284.9816849816848,86.29213483146067,
1.6867349317586633E12,0.8917748917748918,1310.6227106227104,86.29213483146067,
1.6867349317664758E12,0.88999888999889,1343.5897435897434,86.29213483146067,
1.686734931774288E12,0.8917748917748918,1383.8827838827838,86.29213483146067,
1.6867349317821003E12,0.88999888999889,1429.3040293040292,86.29213483146067,
1.6867349317899128E12,0.8922188922188924,1480.5860805860805,86.29213483146067,
1.686734931797725E12,0.8895548895548894,1527.4725274725274,86.29213483146067,
1.6867349318055374E12,0.8917748917748918,1572.8937728937728,86.29213483146067,
1.6867349318133499E12,0.889110889110889,1615.3846153846152,86.29213483146067,
1.686734931821162E12,0.8913308913308914,1649.8168498168498,86.29213483146067,
1.6867349318289744E12,0.889110889110889,1676.923076923077,86.29213483146067,
1.6867349318367869E12,0.8904428904428906,1691.5750915750914,86.29213483146067,
1.686734931844599E12,0.889110889110889,1698.168498168498,86.29213483146067,
1.6867349318524114E12,0.88999888999889,1695.970695970696,86.29213483146067,
1.6867349318602239E12,0.889110889110889,1685.7142857142856,86.29213483146067,
1.6867349318680361E12,0.889110889110889,1670.3296703296703,86.29213483146067,
1.6867349318758484E12,0.8895548895548894,1649.084249084249,86.29213483146067,
1.686734931883661E12,0.8886668886668886,1623.4432234432234,86.29213483146067,
1.6867349318914731E12,0.8895548895548894,1597.8021978021977,86.29213483146067,
1.6867349318992854E12,0.8877788877788876,1571.4285714285713,86.29213483146067,
1.686734931907098E12,0.8895548895548894,1547.2527472527472,86.29213483146067,
1.6867349319149102E12,0.8873348873348873,1517.216117216117,86.29213483146067,
1.6867349319227224E12,0.88999888999889,1489.3772893772893,86.29213483146067,
1.686734931930535E12,0.8873348873348873,1465.201465201465,86.29213483146067,
1.6867349319383472E12,0.8895548895548894,1444.6886446886447,86.29213483146067,
1.6867349319461594E12,0.8868908868908869,1425.6410256410256,86.29213483146067,
1.686734931953972E12,0.889110889110889,1408.7912087912086,86.29213483146067,
1.6867349319617842E12,0.8868908868908869,1391.2087912087911,79.17525773195877,
1.6867349319695964E12,0.8886668886668886,1374.3589743589744,79.17525773195877,
1.686734931977409E12,0.8868908868908869,1359.7069597069597,79.17525773195877,
1.6867349319852212E12,0.8877788877788876,1345.7875457875457,79.17525773195877,
1.6867349319930334E12,0.8873348873348873,1333.3333333333333,79.17525773195877,
1.686734932000846E12,0.8868908868908869,1320.8791208791208,79.17525773195877,
1.6867349320086582E12,0.8877788877788876,1310.6227106227104,79.17525773195877,
1.6867349320164705E12,0.8864468864468864,1304.0293040293038,79.17525773195877,
1.686734932024283E12,0.8877788877788876,1303.2967032967033,79.17525773195877,
1.6867349320320952E12,0.8855588855588855,1307.6923076923076,79.17525773195877,
1.6867349320399075E12,0.8877788877788876,1312.8205128205127,79.17525773195877,
1.68673493204772E12,0.885114885114885,1318.6813186813185,79.17525773195877,
1.6867349320555322E12,0.8877788877788876,1326.007326007326,79.17525773195877,
1.6867349320633445E12,0.8846708846708846,1331.135531135531,79.17525773195877,
1.686734932071157E12,0.8868908868908869,1339.194139194139,79.17525773195877,
1.6867349320789692E12,0.8846708846708846,1343.5897435897434,79.17525773195877,
1.6867349320867815E12,0.8864468864468864,1348.7179487179487,79.17525773195877,
1.686734932094594E12,0.8846708846708846,1352.3809523809523,79.17525773195877,
1.6867349321024062E12,0.8860028860028859,1353.8461538461538,79.17525773195877,
1.6867349321102185E12,0.885114885114885,1356.0439560439559,79.17525773195877,
1.686734932118031E12,0.885114885114885,1354.5787545787546,79.17525773195877,
1.6867349321258433E12,0.885114885114885,1353.8461538461538,79.17525773195877,
1.6867349321336555E12,0.8842268842268842,1350.9157509157508,79.17525773195877,
1.686734932141468E12,0.8855588855588855,1346.5201465201465,79.17525773195877,
1.6867349321492803E12,0.8837828837828837,1340.6593406593406,79.17525773195877,
1.6867349321570925E12,0.8855588855588855,1336.263736263736,79.17525773195877,
1.686734932164905E12,0.8833388833388832,1328.937728937729,79.17525773195877,
1.6867349321727173E12,0.8855588855588855,1320.14652014652,79.17525773195877,
1.6867349321805295E12,0.8828948828948829,1313.5531135531135,79.17525773195877,
1.686734932188342E12,0.8855588855588855,1305.4945054945053,79.17525773195877,
1.6867349321961543E12,0.8828948828948829,1298.168498168498,79.17525773195877,
1.6867349322039666E12,0.885114885114885,1287.9120879120878,79.17525773195877,
1.686734932211779E12,0.8828948828948829,1282.7838827838827,79.17525773195877,
1.6867349322195913E12,0.8842268842268842,1277.6556776556777,79.17525773195877,
1.6867349322274036E12,0.8828948828948829,1273.260073260073,79.17525773195877,
1.686734932235216E12,0.8833388833388832,1271.062271062271,79.17525773195877,
1.6867349322430283E12,0.8833388833388832,1267.3992673992673,79.17525773195877,
1.6867349322508406E12,0.8828948828948829,1262.2710622710622,79.17525773195877,
1.686734932258653E12,0.8833388833388832,1257.8754578754579,79.17525773195877,
1.6867349322664653E12,0.8820068820068818,1255.6776556776556,79.17525773195877,
1.6867349322742776E12,0.8833388833388832,1255.6776556776556,79.17525773195877,
1.68673493228209E12,0.8815628815628815,1254.9450549450548,79.17525773195877,
1.6867349322899023E12,0.8833388833388832,1255.6776556776556,79.17525773195877,
1.6867349322977146E12,0.881118881118881,1257.8754578754579,79.17525773195877,
1.686734932305527E12,0.8833388833388832,1261.5384615384614,79.17525773195877,
1.6867349323133394E12,0.881118881118881,1263.7362637362637,79.17525773195877,
1.6867349323211516E12,0.8828948828948829,1263.003663003663,79.17525773195877,
1.686734932328964E12,0.8806748806748805,1262.2710622710622,79.17525773195877,
1.6867349323367764E12,0.8824508824508824,1262.2710622710622,79.17525773195877,
1.6867349323445886E12,0.8806748806748805,1265.9340659340658,79.17525773195877,
1.6867349323524011E12,0.8815628815628815,1271.062271062271,79.17525773195877,
1.6867349323602134E12,0.881118881118881,1272.5274725274724,79.17525773195877,
1.6867349323680256E12,0.881118881118881,1271.062271062271,79.17525773195877,
1.6867349323758381E12,0.8815628815628815,1270.3296703296703,79.17525773195877,
1.6867349323836504E12,0.8806748806748805,1271.7948717948716,79.17525773195877,
1.6867349323914626E12,0.8815628815628815,1272.5274725274724,79.17525773195877,
1.6867349323992751E12,0.8797868797868797,1276.1904761904761,79.17525773195877,
1.6867349324070874E12,0.8815628815628815,1277.6556776556777,79.17525773195877,
1.6867349324148997E12,0.8797868797868797,1279.120879120879,79.17525773195877,
1.6867349324227122E12,0.8820068820068818,1285.7142857142856,79.17525773195877,
1.6867349324305244E12,0.8793428793428792,1294.5054945054944,79.17525773195877,
1.6867349324383367E12,0.8815628815628815,1307.6923076923076,79.17525773195877,
1.6867349324461492E12,0.8793428793428792,1324.5421245421244,79.17525773195877,
1.6867349324539614E12,0.881118881118881,1348.7179487179487,79.17525773195877,
1.6867349324617737E12,0.8793428793428792,1383.150183150183,79.17525773195877,
1.6867349324695862E12,0.8806748806748805,1422.7106227106226,79.17525773195877,
1.6867349324773984E12,0.8797868797868797,1469.5970695970695,79.17525773195877,
1.6867349324852107E12,0.8797868797868797,1515.018315018315,79.17525773195877,
1.6867349324930232E12,0.8797868797868797,1561.1721611721612,79.17525773195877,
1.6867349325008354E12,0.878898878898879,1602.197802197802,79.17525773195877,
1.6867349325086477E12,0.8797868797868797,1636.6300366300366,79.17525773195877,
1.6867349325164602E12,0.8784548784548785,1667.3992673992673,79.17525773195877,
1.6867349325242725E12,0.8802308802308801,1687.9120879120878,79.17525773195877,
1.6867349325320847E12,0.878010878010878,1699.6336996336995,79.17525773195877,
1.6867349325398972E12,0.8797868797868797,1704.0293040293038,79.17525773195877,
1.6867349325477095E12,0.8771228771228771,1701.098901098901,79.17525773195877,
1.6867349325555217E12,0.8797868797868797,1691.5750915750914,79.17525773195877,
1.6867349325633342E12,0.8771228771228771,1677.6556776556774,79.17525773195877,
1.6867349325711465E12,0.8793428793428792,1657.8754578754579,79.17525773195877,
1.6867349325789587E12,0.8771228771228771,1633.6996336996335,79.17525773195877,
1.6867349325867712E12,0.878898878898879,1605.8608058608058,79.17525773195877,
1.6867349325945835E12,0.8771228771228771,1578.021978021978,79.17525773195877,
1.6867349326023958E12,0.878010878010878,1554.5787545787546,79.17525773195877,
1.6867349326102083E12,0.8775668775668777,1528.2051282051282,79.17525773195877,
1.6867349326180205E12,0.8775668775668777,1504.7619047619046,79.17525773195877,
1.6867349326258328E12,0.8775668775668777,1483.5164835164835,79.17525773195877,
1.6867349326336453E12,0.8766788766788766,1462.2710622710622,79.17525773195877,
1.6867349326414575E12,0.878010878010878,1445.4212454212454,79.17525773195877,
1.6867349326492698E12,0.8762348762348763,1427.106227106227,79.17525773195877,
1.6867349326570823E12,0.878010878010878,1410.2564102564102,79.17525773195877,
1.6867349326648945E12,0.8757908757908757,1395.6043956043954,79.17525773195877,
1.6867349326727068E12,0.878010878010878,1382.4175824175823,79.17525773195877,
1.6867349326805193E12,0.8753468753468754,1372.161172161172,79.17525773195877,
1.6867349326883315E12,0.8775668775668777,1361.1721611721612,79.17525773195877,
1.6867349326961438E12,0.8753468753468754,1350.9157509157508,79.17525773195877,
1.6867349327039563E12,0.8775668775668777,1343.5897435897434,79.17525773195877,
1.6867349327117686E12,0.8753468753468754,1337.7289377289376,79.17525773195877,
1.6867349327195808E12,0.8766788766788766,1336.263736263736,79.17525773195877,
1.6867349327273933E12,0.8757908757908757,1332.6007326007325,79.17525773195877,
1.6867349327352056E12,0.8757908757908757,1331.135531135531,79.17525773195877,
1.6867349327430178E12,0.8757908757908757,1330.4029304029302,79.17525773195877,
1.6867349327508303E12,0.8753468753468754,1330.4029304029302,79.17525773195877,
1.6867349327586426E12,0.8757908757908757,1334.065934065934,79.17525773195877,
1.6867349327664548E12,0.8744588744588745,1336.263736263736,79.17525773195877,
1.6867349327742673E12,0.8766788766788766,1339.194139194139,79.17525773195877,
1.6867349327820796E12,0.8744588744588745,1342.1245421245421,79.17525773195877,
1.6867349327898918E12,0.8762348762348763,1342.8571428571427,79.17525773195877,
1.6867349327977043E12,0.8740148740148739,1347.2527472527472,79.17525773195877,
1.6867349328055166E12,0.8762348762348763,1350.9157509157508,79.17525773195877,
1.6867349328133289E12,0.8735708735708736,1353.113553113553,79.17525773195877,
1.6867349328211414E12,0.8762348762348763,1351.6483516483515,79.17525773195877,
1.6867349328289536E12,0.8740148740148739,1347.985347985348,79.17525773195877,
1.6867349328367659E12,0.8757908757908757,1342.8571428571427,79.17525773195877,
1.6867349328445784E12,0.8744588744588745,1340.6593406593406,79.17525773195877,
1.6867349328523906E12,0.8753468753468754,1334.7985347985348,79.17525773195877,
1.686734932860203E12,0.8744588744588745,1327.4725274725274,79.17525773195877,
1.6867349328680154E12,0.8744588744588745,1321.6117216117216,79.17525773195877,
1.6867349328758276E12,0.8749028749028749,1314.2857142857142,79.17525773195877,
1.68673493288364E12,0.8740148740148739,1309.1575091575091,79.17525773195877,
1.6867349328914524E12,0.8753468753468754,1301.8315018315018,79.17525773195877,
1.6867349328992646E12,0.8740148740148739,1294.5054945054944,79.17525773195877,
1.686734932907077E12,0.8757908757908757,1288.6446886446886,79.17525773195877,
1.6867349329148894E12,0.8735708735708736,1281.3186813186812,79.17525773195877,
1.6867349329227017E12,0.8757908757908757,1276.1904761904761,79.17525773195877,
1.686734932930514E12,0.8735708735708736,1271.062271062271,79.17525773195877,
1.6867349329383264E12,0.8757908757908757,1266.6666666666665,79.17525773195877,
1.6867349329461387E12,0.8735708735708736,1263.7362637362637,79.17525773195877,
1.686734932953951E12,0.8757908757908757,1262.2710622710622,79.17525773195877,
1.6867349329617634E12,0.8740148740148739,1262.2710622710622,79.17525773195877,
1.6867349329695757E12,0.8753468753468754,1259.3406593406592,79.17525773195877,
1.686734932977388E12,0.8744588744588745,1259.3406593406592,79.17525773195877,
1.6867349329852004E12,0.8749028749028749,1258.6080586080586,79.17525773195877,
1.6867349329930127E12,0.8749028749028749,1257.8754578754579,79.17525773195877,
1.686734933000825E12,0.8744588744588745,1257.8754578754579,79.17525773195877,
1.6867349330086375E12,0.8753468753468754,1257.142857142857,79.17525773195877,
1.6867349330164497E12,0.8740148740148739,1255.6776556776556,79.17525773195877,
1.686734933024262E12,0.8757908757908757,1254.9450549450548,79.17525773195877,
1.6867349330320745E12,0.8735708735708736,1254.212454212454,79.17525773195877,
1.6867349330398867E12,0.8762348762348763,1254.9450549450548,79.17525773195877,
1.686734933047699E12,0.8740148740148739,1257.142857142857,79.17525773195877,
1.6867349330555115E12,0.8762348762348763,1256.4102564102564,79.17525773195877,
1.6867349330633237E12,0.8740148740148739,1257.142857142857,79.17525773195877,
1.686734933071136E12,0.8762348762348763,1257.142857142857,79.17525773195877,
1.6867349330789485E12,0.8744588744588745,1257.142857142857,79.17525773195877,
1.6867349330867607E12,0.8762348762348763,1257.8754578754579,79.17525773195877,
1.686734933094573E12,0.8749028749028749,1255.6776556776556,79.17525773195877,
1.6867349331023855E12,0.8762348762348763,1256.4102564102564,79.17525773195877,
1.6867349331101978E12,0.8753468753468754,1257.8754578754579,79.17525773195877,
1.68673493311801E12,0.8753468753468754,1260.8058608058607,79.17525773195877,
1.6867349331258225E12,0.8762348762348763,1263.7362637362637,79.17525773195877,
1.6867349331336348E12,0.8753468753468754,1265.9340659340658,79.17525773195877,
1.686734933141447E12,0.8766788766788766,1265.9340659340658,79.17525773195877,
1.6867349331492595E12,0.8753468753468754,1266.6666666666665,79.17525773195877,
1.6867349331570718E12,0.8771228771228771,1265.9340659340658,79.17525773195877,
1.686734933164884E12,0.8753468753468754,1268.8644688644688,79.17525773195877,
1.6867349331726965E12,0.878010878010878,1270.3296703296703,79.17525773195877,
1.6867349331805088E12,0.8757908757908757,1272.5274725274724,79.17525773195877,
1.686734933188321E12,0.878010878010878,1278.3882783882782,79.17525773195877,
1.6867349331961335E12,0.8762348762348763,1285.7142857142856,79.17525773195877,
1.6867349332039458E12,0.8784548784548785,1299.6336996336995,79.17525773195877,
1.686734933211758E12,0.8766788766788766,1317.216117216117,79.17525773195877,
1.6867349332195706E12,0.8784548784548785,1341.3919413919414,79.17525773195877,
1.6867349332273828E12,0.8771228771228771,1374.3589743589744,79.17525773195877,
1.686734933235195E12,0.878010878010878,1416.117216117216,79.17525773195877,
1.6867349332430076E12,0.8784548784548785,1465.9340659340658,79.17525773195877,
1.6867349332508198E12,0.878010878010878,1515.7509157509157,79.17525773195877,
1.686734933258632E12,0.878898878898879,1566.3003663003662,79.17525773195877,
1.6867349332664446E12,0.878010878010878,1612.4542124542124,79.17525773195877,
1.6867349332742568E12,0.8797868797868797,1652.7472527472526,79.17525773195877,
1.686734933282069E12,0.878010878010878,1684.249084249084,79.17525773195877,
1.6867349332898816E12,0.8802308802308801,1710.6227106227104,79.17525773195877,
1.6867349332976938E12,0.8784548784548785,1725.2747252747251,79.17525773195877,
1.686734933305506E12,0.8806748806748805,1734.065934065934,79.17525773195877,
1.6867349333133186E12,0.878898878898879,1733.3333333333333,79.17525773195877,
1.6867349333211309E12,0.8815628815628815,1723.8095238095236,79.17525773195877,
1.686734933328943E12,0.8793428793428792,1709.1575091575091,79.17525773195877,
1.6867349333367556E12,0.881118881118881,1687.9120879120878,87.27272727272727,
1.6867349333445679E12,0.8802308802308801,1663.003663003663,87.27272727272727,
1.6867349333523801E12,0.8815628815628815,1636.6300366300366,87.27272727272727,
1.6867349333601926E12,0.881118881118881,1610.989010989011,87.27272727272727,
1.686734933368005E12,0.881118881118881,1589.7435897435896,87.27272727272727,
1.6867349333758171E12,0.8820068820068818,1567.7655677655678,87.27272727272727,
1.6867349333836296E12,0.881118881118881,1547.2527472527472,87.27272727272727,
1.686734933391442E12,0.8828948828948829,1527.4725274725274,87.27272727272727,
1.6867349333992542E12,0.881118881118881,1508.4249084249084,87.27272727272727,
1.6867349334070667E12,0.8833388833388832,1491.5750915750914,87.27272727272727,
1.686734933414879E12,0.8815628815628815,1472.5274725274724,87.27272727272727,
1.6867349334226912E12,0.8842268842268842,1454.9450549450548,87.27272727272727,
1.6867349334305037E12,0.8820068820068818,1436.6300366300366,87.27272727272727,
1.686734933438316E12,0.8846708846708846,1420.5128205128203,87.27272727272727,
1.6867349334461282E12,0.8824508824508824,1406.5934065934066,87.27272727272727,
1.6867349334539407E12,0.885114885114885,1393.4065934065934,87.27272727272727,
1.686734933461753E12,0.8833388833388832,1382.4175824175823,87.27272727272727,
1.6867349334695652E12,0.885114885114885,1375.091575091575,87.27272727272727,
1.6867349334773777E12,0.8842268842268842,1370.6959706959706,87.27272727272727,
1.68673493348519E12,0.8846708846708846,1365.5677655677655,87.27272727272727,
1.6867349334930022E12,0.8855588855588855,1365.5677655677655,87.27272727272727,
1.6867349335008147E12,0.885114885114885,1364.8351648351647,87.27272727272727,
1.686734933508627E12,0.8864468864468864,1364.102564102564,87.27272727272727,
1.6867349335164392E12,0.885114885114885,1363.3699633699632,87.27272727272727,
1.6867349335242517E12,0.8873348873348873,1363.3699633699632,87.27272727272727,
1.686734933532064E12,0.8855588855588855,1367.032967032967,87.27272727272727,
1.6867349335398762E12,0.8877788877788876,1367.032967032967,87.27272727272727,
1.6867349335476887E12,0.8855588855588855,1369.230769230769,87.27272727272727,
1.686734933555501E12,0.8886668886668886,1371.4285714285713,87.27272727272727,
1.6867349335633132E12,0.8864468864468864,1374.3589743589744,87.27272727272727,
1.6867349335711257E12,0.889110889110889,1377.2893772893772,87.27272727272727,
1.686734933578938E12,0.8868908868908869,1378.7545787545787,87.27272727272727,
1.6867349335867502E12,0.8886668886668886,1378.7545787545787,87.27272727272727,
1.6867349335945627E12,0.8877788877788876,1377.2893772893772,87.27272727272727,
1.686734933602375E12,0.889110889110889,1372.8937728937728,87.27272727272727,
1.6867349336101873E12,0.8886668886668886,1367.7655677655678,87.27272727272727,
1.6867349336179998E12,0.8886668886668886,1362.6373626373625,87.27272727272727,
1.686734933625812E12,0.8895548895548894,1356.0439560439559,87.27272727272727,
1.6867349336336243E12,0.8886668886668886,1349.4505494505493,87.27272727272727,
1.6867349336414368E12,0.8904428904428906,1342.8571428571427,87.27272727272727,
1.686734933649249E12,0.889110889110889,1338.4615384615383,87.27272727272727,
1.6867349336570613E12,0.890886890886891,1331.8681318681317,87.27272727272727,
1.6867349336648738E12,0.889110889110889,1326.007326007326,87.27272727272727,
1.686734933672686E12,0.8917748917748918,1317.9487179487178,87.27272727272727,
1.6867349336804983E12,0.8895548895548894,1309.89010989011,87.27272727272727,
1.6867349336883108E12,0.8922188922188924,1301.8315018315018,87.27272727272727,
1.686734933696123E12,0.88999888999889,1295.970695970696,87.27272727272727,
1.6867349337039353E12,0.8922188922188924,1288.6446886446886,87.27272727272727,
1.6867349337117478E12,0.8904428904428906,1283.5164835164835,87.27272727272727,
1.68673493371956E12,0.8922188922188924,1278.3882783882782,87.27272727272727,
1.6867349337273723E12,0.8917748917748918,1276.1904761904761,87.27272727272727,
1.6867349337351848E12,0.8922188922188924,1277.6556776556777,87.27272727272727,
1.686734933742997E12,0.8922188922188924,1275.4578754578754,87.27272727272727,
1.6867349337508093E12,0.8922188922188924,1271.7948717948716,87.27272727272727,
1.6867349337586218E12,0.8935508935508937,1269.5970695970695,87.27272727272727,
1.686734933766434E12,0.8922188922188924,1267.3992673992673,87.27272727272727,
1.6867349337742463E12,0.8939948939948941,1267.3992673992673,87.27272727272727,
1.6867349337820588E12,0.8922188922188924,1266.6666666666665,87.27272727272727,
1.686734933789871E12,0.8944388944388945,1265.9340659340658,87.27272727272727,
1.6867349337976833E12,0.8922188922188924,1265.2014652014652,87.27272727272727,
1.6867349338054958E12,0.894882894882895,1265.9340659340658,87.27272727272727,
1.686734933813308E12,0.8926628926628928,1268.131868131868,87.27272727272727,
1.6867349338211204E12,0.8953268953268955,1270.3296703296703,87.27272727272727,
1.6867349338289329E12,0.8931068931068932,1271.7948717948716,87.27272727272727,
1.686734933836745E12,0.8953268953268955,1274.7252747252746,87.27272727272727,
1.6867349338445574E12,0.8935508935508937,1274.7252747252746,87.27272727272727,
1.6867349338523699E12,0.894882894882895,1275.4578754578754,87.27272727272727,
1.6867349338601821E12,0.894882894882895,1274.7252747252746,87.27272727272727,
1.6867349338679944E12,0.894882894882895,1273.260073260073,87.27272727272727,
1.686734933875807E12,0.8957708957708957,1272.5274725274724,87.27272727272727,
1.6867349338836191E12,0.894882894882895,1271.062271062271,87.27272727272727,
1.6867349338914314E12,0.8962148962148963,1271.7948717948716,87.27272727272727,
1.686734933899244E12,0.8944388944388945,1269.5970695970695,87.27272727272727,
1.6867349339070562E12,0.8966588966588968,1265.9340659340658,87.27272727272727,
1.6867349339148684E12,0.894882894882895,1263.003663003663,87.27272727272727,
1.686734933922681E12,0.8971028971028971,1262.2710622710622,87.27272727272727,
1.6867349339304932E12,0.894882894882895,1260.8058608058607,87.27272727272727,
1.6867349339383054E12,0.8975468975468975,1260.8058608058607,87.27272727272727,
1.686734933946118E12,0.8953268953268955,1258.6080586080586,87.27272727272727,
1.6867349339539302E12,0.8975468975468975,1257.8754578754579,87.27272727272727,
1.6867349339617424E12,0.8957708957708957,1255.6776556776556,87.27272727272727,
1.686734933969555E12,0.8975468975468975,1252.7472527472526,87.27272727272727,
1.6867349339773672E12,0.8966588966588968,1250.5494505494505,87.27272727272727,
1.6867349339851797E12,0.8971028971028971,1247.6190476190475,87.27272727272727,
1.686734933992992E12,0.8971028971028971,1248.3516483516482,87.27272727272727,
1.6867349340008042E12,0.8966588966588968,1254.9450549450548,87.27272727272727,
1.6867349340086167E12,0.897990897990898,1267.3992673992673,87.27272727272727,
1.686734934016429E12,0.8971028971028971,1287.179487179487,87.27272727272727,
1.6867349340242412E12,0.898878898878899,1310.6227106227104,87.27272727272727,
1.6867349340320537E12,0.8966588966588968,1340.6593406593406,87.27272727272727,
1.686734934039866E12,0.8993228993228994,1375.8241758241757,87.27272727272727,
1.6867349340476782E12,0.8971028971028971,1416.8498168498168,87.27272727272727,
1.6867349340554907E12,0.8997668997668998,1464.4688644688645,87.27272727272727,
1.686734934063303E12,0.8975468975468975,1512.8205128205127,87.27272727272727,
1.6867349340711152E12,0.8997668997668998,1560.4395604395604,87.27272727272727,
1.6867349340789277E12,0.897990897990898,1602.9304029304028,87.27272727272727,
1.68673493408674E12,0.8997668997668998,1639.5604395604394,87.27272727272727,
