"sep=,"
Shimmer_69B4_TimestampSync_Unix_CAL,Shimmer_69B4_EMG_CH2_24BIT_CAL,Shimmer_69B4_EMG_CH2_BandPass_Filter_CAL,
ms,mV,mV,
1.6867349366469033E12,91.15197831217189,0.07245375157219705,
1.686734936648856E12,91.41808308181164,0.5902635889743204,
1.6867349366508088E12,91.78051830695291,0.6576498078003694,
1.6867349366527615E12,92.28568223544147,0.36257312818852455,
1.686734936654714E12,92.54159381488091,-0.02500108725611986,
1.686734936656667E12,92.2994093854518,-0.5597553131048822,
1.6867349366586196E12,91.9478885667986,-0.6926901194147678,
1.6867349366605725E12,91.45428813945709,-0.4328534300765909,
1.6867349366625251E12,91.11291242991834,-0.06445550400488732,
1.6867349366644778E12,91.32901287027353,0.43295915326867046,
1.6867349366664307E12,91.46820761381082,0.7020668061162382,
1.6867349366683833E12,91.85802501734396,0.45925195865961466,
1.6867349366703362E12,92.38376765057656,0.3132721732250874,
1.6867349366722888E12,92.5204621776496,-0.11188094386153596,
1.6867349366742415E12,92.24690483970302,-0.6310773418223958,
1.6867349366761943E12,91.87237722147034,-0.6509482459559606,
1.686734936678147E12,91.3569479811527,-0.3692372276808858,
1.6867349366800999E12,91.13082263439766,0.01585140019996791,
1.6867349366820525E12,91.38238287556763,0.5436134460595919,
1.6867349366840051E12,91.7243595986795,0.6843586606424501,
1.686734936685958E12,92.21247878223404,0.4205492607722973,
1.6867349366879106E12,92.54846941015754,0.045563946675885654,
1.6867349366898635E12,92.33770597033174,-0.46807891766995935,
1.6867349366918162E12,92.0034703020418,-0.7001718646733404,
1.6867349366937688E12,91.52888594415418,-0.443750030219086,
1.6867349366957217E12,91.11320091643344,-0.11004264898138705,
1.6867349366976743E12,91.29175002873937,0.38882265257090076,
1.6867349366996272E12,91.59773805909214,0.7215421550172622,
1.6867349367015798E12,92.039434954258,0.5238434188771279,
1.6867349367035325E12,92.31013146759646,0.1834982251993558,
1.6867349367054854E12,92.5379636928992,-0.283982707034104,
1.686734936707438E12,92.28347050549235,-0.5559702901735059,
1.6867349367093909E12,91.92721369988287,-0.656193112165311,
1.6867349367113435E12,91.43113709662006,-0.3986772098388372,
1.6867349367132961E12,91.11971590356619,-0.0246941746398329,
1.686734936715249E12,91.34728368289673,0.4817132324493257,
1.6867349367172017E12,91.66870574180751,0.7194353895132573,
1.6867349367191543E12,92.13927532902662,0.46496263427075424,
1.6867349367211072E12,92.5473875857259,0.11477521085885292,
1.6867349367230598E12,92.38386381274826,-0.39027470487449173,
1.6867349367250127E12,92.06075891583271,-0.7012172494577406,
1.6867349367269653E12,91.60831589797925,-0.47977879639310217,
1.686734936728918E12,91.13178425611467,-0.15249007083153837,
1.6867349367308708E12,91.25126575445323,0.31205324125190986,
1.6867349367328235E12,91.54535371605799,0.7243286365386645,
1.6867349367347764E12,91.96676039299493,0.5580909385442043,
1.686734936736729E12,92.48089144399462,0.24231236918628965,
1.6867349367386816E12,92.47579484889447,-0.22169710274675147,
1.6867349367406345E12,92.17843737345187,-0.6909641185372815,
1.6867349367425872E12,91.98385321901479,-0.5788855773193377,
1.68673493674454E12,91.50188841444911,-0.2815322325568229,
1.6867349367464927E12,91.1160136599557,-0.09000262898476596,
1.6867349367484453E12,91.30915538181726,0.4089354760339341,
1.6867349367503982E12,91.61841292600786,0.7150834008888192,
1.6867349367523508E12,92.07316383598214,0.4987683681576586,
1.6867349367543037E12,92.53005435427679,0.15237455777890263,
1.6867349367562563E12,92.42273737065841,-0.3236475608343389,
1.686734936758209E12,92.11417700221264,-0.7213324832112274,
1.6867349367601619E12,91.67834599952054,-0.531181755592469,
1.6867349367621145E12,91.16524869186664,-0.2261592201253149,
1.6867349367640674E12,91.21782535924419,0.22569062568445178,
1.68673493676602E12,91.49948436015659,0.685759496115431,
1.6867349367679727E12,91.90567337342183,0.5848466330862444,
1.6867349367699255E12,92.42833881716,0.2715127185768485,
1.6867349367718782E12,92.50863423053038,-0.16163229521441658,
1.686734936773831E12,92.22315278329286,-0.6790563450677403,
1.6867349367757837E12,91.83545094753714,-0.6304640309706014,
1.6867349367777363E12,91.30932366561774,-0.3504073951773267,
1.6867349367796892E12,91.15087244719733,0.052795816288434286,
1.6867349367816418E12,91.2715078915963,0.5758157327211402,
1.6867349367835947E12,91.56537948831473,0.6604877890489717,
1.6867349367855474E12,91.9964264229647,0.5225324111765942,
1.6867349367875E12,92.5016143919962,0.19699357571957768,
1.686734936789453E12,92.46615459118144,-0.26624102943536065,
1.6867349367914055E12,92.16341203412358,-0.72085607769209,
1.6867349367933584E12,91.74770296585993,-0.5850804634933017,
1.686734936795311E12,91.21633484558282,-0.2873760934353384,
1.6867349367972637E12,91.18287040983085,0.1478524094575158,
1.6867349367992166E12,91.4548651124873,0.6483235160717608,
1.6867349368011692E12,91.83886470463253,0.6226726130220407,
1.686734936803122E12,92.35900589136354,0.31965405919057177,
1.6867349368050747E12,92.51885146127361,-0.0908002348957394,
1.6867349368070273E12,92.25132829960127,-0.6173024629998443,
1.6867349368089802E12,91.88237808732725,-0.6605913013905632,
1.6867349368109329E12,91.37399272608671,-0.3832292486031052,
1.6867349368128857E12,91.12409128237859,6.031571246171645E-4,
1.6867349368148384E12,91.36937694184506,0.5188440863503866,
1.686734936816791E12,91.70741101591719,0.6949057533732662,
1.686734936818744E12,91.925242375363,0.4259741269958968,
1.6867349368206965E12,92.44634518381102,0.061346720098518166,
1.6867349368226492E12,92.49949882421878,-0.17675948055942017,
1.686734936824602E12,92.21404141752419,-0.6757447804323609,
1.6867349368265547E12,91.82126702721123,-0.6092319048592104,
1.6867349368285076E12,91.2901633529063,-0.31883853184932687,
1.6867349368304602E12,91.16762870561624,0.08794299274427111,
1.6867349368324128E12,91.43161790747857,0.6181583324269279,
1.6867349368343657E12,91.79393292990521,0.6693061977463389,
1.6867349368363184E12,92.30022676391125,0.3881421186430127,
1.6867349368382712E12,92.55255630245483,-0.010218144388335225,
1.6867349368402239E12,92.30916984587945,-0.5355431010677082,
1.6867349368421765E12,91.95685568930972,-0.6704552808367125,
1.6867349368441294E12,91.46284657273848,-0.399834118231307,
1.686734936846082E12,91.12913979639289,-0.04111921869066174,
1.686734936848035E12,91.35007238587608,0.4685047189170165,
1.6867349368499875E12,91.66820089040608,0.7202615673331167,
1.6867349368519402E12,92.13499611238592,0.4824715536293217,
1.686734936853893E12,92.55298903222749,0.1263642192660841,
1.6867349368558457E12,92.40439443640643,-0.3629055116371037,
1.6867349368577986E12,92.25998289505436,-0.709289690170623,
1.6867349368597512E12,91.88043080335031,-0.48890976847709616,
1.6867349368617039E12,91.36283791416939,-0.35513004013146937,
1.6867349368636567E12,91.15053587959638,0.03893700740352802,
1.6867349368656094E12,91.39952378267334,0.5588791298672059,
1.6867349368675623E12,91.74479406016597,0.6998214231695098,
1.686734936869515E12,92.23945227139619,0.4201054122814327,
1.6867349368714675E12,92.56606708757883,0.049857224089655296,
1.6867349368734204E12,92.35061574188262,-0.47205542629697733,
1.686734936875373E12,92.01813503322622,-0.6938316060405693,
1.686734936877326E12,91.54056964801586,-0.4490406448212099,
1.6867349368792786E12,91.13640004035632,-0.1026059673450657,
1.6867349368812312E12,91.31826674758594,0.3785013022855508,
1.686734936883184E12,91.6197832369546,0.7190964510297064,
1.6867349368851367E12,92.0671296597079,0.501125189867589,
1.6867349368870896E12,92.53991097687614,0.17167684849932954,
1.6867349368890422E12,92.4536535088603,-0.31026074827286154,
1.6867349368909949E12,92.15040610040101,-0.7209427247571782,
1.6867349368929478E12,91.71772440883213,-0.5498381195415524,
1.6867349368949004E12,91.19758322210112,-0.2386048466137269,
1.6867349368968533E12,91.1385636892196,0.19561215280464256,
1.686734936898806E12,91.37221372591024,0.4718145887608228,
1.6867349369007585E12,91.69421275785122,0.6921874589982107,
1.6867349369027114E12,92.16410920986841,0.4434710911299642,
1.686734936904664E12,92.56500930369012,0.07983167665682234,
1.686734936906617E12,92.39701398972838,-0.4101961619889975,
1.6867349369085696E12,92.07518324158787,-0.7288676483314354,
1.6867349369105222E12,91.6154078581422,-0.49498777879078487,
1.686734936912475E12,91.14707404141514,-0.18063069688942732,
1.6867349369144277E12,91.27439275674733,0.29649458592378425,
1.6867349369163804E12,91.56956254278373,0.6977765996444877,
1.6867349369183333E12,91.99709955816661,0.5410205856160095,
1.686734936920286E12,92.5043790544326,0.21136650676777033,
1.6867349369222388E12,92.49553213463611,-0.23413866461283267,
1.6867349369241914E12,92.19798233485011,-0.7168962559511233,
1.686734936926144E12,91.78926906457771,-0.5903579095095628,
1.686734936928097E12,91.25391021417501,-0.30213681576927026,
1.6867349369300496E12,91.19578018138172,0.1263850520749815,
1.6867349369320024E12,91.46868842466932,0.6350370377444333,
1.686734936933955E12,91.64057830658496,0.6370441178467532,
1.6867349369359077E12,92.09568982470311,0.33461708361977355,
1.6867349369378606E12,92.5546237891464,0.14704921954347874,
1.6867349369398132E12,92.44596053512421,-0.33956192070900054,
1.686734936941766E12,92.13502015292885,-0.7185874996096321,
1.6867349369437188E12,91.6945733659951,-0.5296633725943756,
1.6867349369456714E12,91.18767851841591,-0.2138065164226293,
1.6867349369476243E12,91.24061579393734,0.23715256235307008,
1.686734936949577E12,91.5263376466041,0.7003088793514254,
1.6867349369515298E12,91.93130059218016,0.5896134244812574,
1.6867349369534824E12,92.45526422523629,0.2869046139922284,
1.686734936955435E12,92.52750605672671,-0.15191169638956795,
1.686734936957388E12,92.24284198794865,-0.6596470349604947,
1.6867349369593406E12,91.85208700324142,-0.6096891202853697,
1.6867349369612935E12,91.32086312622187,-0.3232260851350645,
1.686734936963246E12,91.16820567864644,0.08067698451198729,
1.6867349369651987E12,91.43414216448572,0.6075297469065414,
1.6867349369671516E12,91.78893249697676,0.6858313680081247,
1.6867349369691042E12,92.29412046600824,0.403874375947374,
1.6867349369710571E12,92.56710083092462,0.014426268855005753,
1.6867349369730098E12,92.4840167145749,-0.508870609369408,
1.6867349369749624E12,92.18199537380481,-0.668867110784115,
1.6867349369769153E12,91.76426689993544,-0.5461099957600479,
1.686734936978868E12,91.23472586092065,-0.2536309544328031,
1.6867349369808208E12,91.20616569592543,0.1788320741052675,
1.6867349369827734E12,91.48253577739428,0.6827312751731803,
1.686734936984726E12,91.86711234256971,0.6480038861473967,
1.686734936986679E12,92.38915273219182,0.344028885415508,
1.6867349369886316E12,92.55250822136898,-0.071589511800752,
1.6867349369905845E12,92.28488889752494,-0.6041782037476894,
1.686734936992537E12,91.91081804960784,-0.6381313309883138,
1.6867349369944897E12,91.40305774248336,-0.36738622275036675,
1.6867349369964426E12,91.15378135289129,0.015625575322423473,
1.6867349369983953E12,91.39760053923932,0.5344517009292683,
1.6867349370003481E12,91.73871180280588,0.6929062271960665,
1.6867349370023008E12,92.22810513513546,0.4239716679020036,
1.6867349370042534E12,92.5765968453801,0.05333797861333358,
1.6867349370062063E12,92.37730074452966,-0.4565795401788909,
1.686734937008159E12,92.04854632002667,-0.7083337069719696,
1.6867349370101118E12,91.57711127326226,-0.46471874540545643,
1.6867349370120645E12,91.30492424626242,-0.12857633510395286,
1.686734937014017E12,91.18561103172433,0.08743391439878478,
1.68673493701597E12,91.45303803122498,0.6067390790789176,
1.6867349370179226E12,91.8184783242319,0.6579148037124484,
1.6867349370198752E12,92.32611842864176,0.37088605230361843,
1.6867349370218281E12,92.57505825063288,-0.02402396520694691,
1.6867349370237808E12,92.32818591533334,-0.5563457228436318,
1.6867349370257336E12,91.97286669089794,-0.6811694487209876,
1.6867349370276863E12,91.4777036282663,-0.4179278361238516,
1.686734937029639E12,91.14505463580942,-0.058048820490619255,
1.6867349370315918E12,91.36192437353823,0.4480709451506999,
1.6867349370335444E12,91.6853417975118,0.6978246472567478,
1.6867349370354973E12,92.15023781660054,0.4549226453601703,
1.68673493703745E12,92.57258207471158,0.09990104757127742,
1.6867349370394026E12,92.42107857319657,-0.39290074716987544,
1.6867349370413555E12,92.09934398722775,-0.729438040741023,
1.686734937043308E12,91.64827128032104,-0.5065338234335571,
1.686734937045261E12,91.16181089422832,-0.19135249142251468,
1.6867349370472136E12,91.26782968852874,0.27819454258013754,
1.6867349370491663E12,91.41440487874408,0.6931272604187378,
1.6867349370511191E12,91.75989152112304,0.5480534713293698,
1.6867349370530718E12,92.24978970485405,0.40047064100353624,
1.6867349370550247E12,92.57426491271634,0.025171210164057913,
1.6867349370569773E12,92.36357359451934,-0.49570414138294117,
1.68673493705893E12,92.0277272098534,-0.7030827843687004,
1.6867349370608828E12,91.54797413523684,-0.45749098343212563,
1.6867349370628354E12,91.13971763528001,-0.10671028012018013,
1.6867349370647883E12,91.32225747771153,0.38443371491602923,
1.686734937066741E12,91.62822146752137,0.7170420187463218,
1.6867349370686936E12,92.07869316085495,0.4979526817602099,
1.6867349370706465E12,92.55027245087693,0.17182946084908687,
1.686734937072599E12,92.46355821254551,-0.30950239977508315,
1.686734937074552E12,92.15466127649879,-0.7070805234212966,
1.6867349370765046E12,91.72111412538459,-0.5291105181041104,
1.6867349370784573E12,91.20486750660747,-0.22090649156360215,
1.6867349370804102E12,91.23491818526405,0.2224146037789989,
1.6867349370823628E12,91.51960629458503,0.701838192601316,
1.6867349370843157E12,91.91488090136221,0.6114324729919322,
1.6867349370862683E12,92.43934938581977,0.31464304359192524,
1.686734937088221E12,92.57618815615037,-0.12229707196197642,
1.6867349370901738E12,92.40999588290802,-0.6362972317945415,
1.6867349370921265E12,92.08275601260932,-0.6996633307714188,
1.6867349370940793E12,91.62286042644904,-0.46031260679306607,
1.686734937096032E12,91.1556084341536,-0.14271701995835967,
1.6867349370979846E12,91.28090774388008,0.3323286179154437,
1.6867349370999375E12,91.5781930976939,0.728809598963296,
1.6867349371018901E12,92.00825437008393,0.5653149937688651,
1.686734937103843E12,92.517120542183,0.23910186272107514,
1.6867349371057957E12,92.50154227036742,-0.21690103609145053,
1.6867349371077483E12,92.20579551130082,-0.6895171905648666,
1.6867349371097012E12,91.79225009190044,-0.5592149829667686,
1.6867349371116538E12,91.26054540402238,-0.2681550091289984,
1.6867349371136067E12,91.20352123620366,0.16153356179125183,
1.6867349371155593E12,91.47796807423848,0.6649565172060549,
1.686734937117512E12,91.85533247653633,0.6574026927952982,
1.6867349371194648E12,92.37513709566639,0.3563382052586915,
1.6867349371214175E12,92.56351879002875,-0.051950115401464714,
1.68673493712337E12,92.29837564210601,-0.5903872117406394,
1.686734937125323E12,92.13708763962042,-0.6489542421399689,
1.6867349371272756E12,91.70101623149907,-0.37858988405905625,
1.6867349371292285E12,91.18866418067584,-0.20798070221002718,
1.6867349371311812E12,91.24994352459234,0.2452203008810363,
1.6867349371331338E12,91.53367001219631,0.7020575735302714,
1.6867349371350867E12,91.93860891722944,0.5922141446273521,
1.6867349371370393E12,92.46480832077762,0.2783970160879685,
1.6867349371389922E12,92.5314006246806,-0.16240708871399454,
1.6867349371409448E12,92.2474577721903,-0.6729171384729049,
1.6867349371428975E12,91.85456317916272,-0.6194279686662981,
1.6867349371448503E12,91.32410859951678,-0.33801603186667295,
1.686734937146803E12,91.17674007138491,0.0684840718786608,
1.6867349371487559E12,91.4420274625652,0.5874867678574252,
1.6867349371507085E12,91.79939013314925,0.6623134517065357,
1.6867349371526611E12,92.30748700787468,0.3720798511746092,
1.686734937154614E12,92.57734210221078,-0.014994335001339383,
1.6867349371565667E12,92.33840314607657,-0.5523565814342956,
1.6867349371585195E12,91.99373388215707,-0.7002044497116664,
1.6867349371604722E12,91.49833041409617,-0.4409395351239661,
1.6867349371624248E12,91.14572777101132,-0.0801965512481472,
1.6867349371643777E12,91.21948415670603,0.417817084450967,
1.6867349371663303E12,91.50068638730285,0.6978874710704118,
1.6867349371682832E12,91.88535911464999,0.6071511449081736,
1.6867349371702358E12,92.40821688273155,0.31333247723743013,
1.6867349371721885E12,92.56219656016786,-0.11250617592868058,
1.6867349371741414E12,92.29318288483415,-0.6327752206177947,
1.686734937176094E12,91.92062659112135,-0.669887985662243,
1.6867349371780469E12,91.40469249940227,-0.38323826902366037,
1.6867349371799995E12,91.16705173258603,-0.007645745729497599,
1.6867349371819521E12,91.4163281221781,0.5256029244537193,
1.686734937183905E12,91.75597291262622,0.679549745931949,
1.6867349371858577E12,92.24166400134531,0.4239732144567643,
1.6867349371878105E12,92.59224723882444,0.040074602687457876,
1.6867349371897632E12,92.39215780005748,-0.4549150624142351,
1.6867349371917158E12,92.0595088076006,-0.7144324409352417,
1.6867349371936687E12,91.58675153097529,-0.45723131947557394,
1.6867349371956213E12,91.16327736734677,-0.12676849048986227,
1.6867349371975742E12,91.33196985705334,0.3764939172851785,
1.6867349371995269E12,91.6357701979999,0.7139363378666885,
1.6867349372014795E12,92.07619294439073,0.5288674552694446,
1.6867349372034324E12,92.34773087673159,0.18867296392984453,
1.686734937205385E12,92.59157410362253,-0.26830645559645344,
1.686734937207338E12,92.34640864687069,-0.5523096116108418,
1.6867349372092905E12,91.99041628723339,-0.6570659843663657,
1.6867349372112432E12,91.4919837107639,-0.40181186789301454,
1.686734937213196E12,91.16782102995964,-0.02183582688333419,
1.6867349372151487E12,91.39118171427828,0.47329906385274817,
1.6867349372171016E12,91.71108921898475,0.7366384929063294,
1.6867349372190542E12,92.18348588746618,0.4769581172970147,
1.6867349372210068E12,92.5958292797203,0.13579896499563776,
1.6867349372229597E12,92.44047929133725,-0.3724396856517327,
1.6867349372249124E12,92.12054774608784,-0.6912574774739694,
1.686734937226865E12,91.66786432280513,-0.48768952627702333,
1.6867349372288179E12,91.18537062629508,-0.1508449719366826,
1.6867349372307705E12,91.29477913714796,0.3005694479811898,
1.6867349372327234E12,91.58725638237672,0.7358767349027268,
1.686734937234676E12,92.00847073497026,0.5707623392834718,
1.6867349372366287E12,92.52534240786343,0.2614838129739245,
1.6867349372385815E12,92.53414124657408,-0.20327355108424577,
1.6867349372405342E12,92.381051069226,-0.6778106485540648,
1.686734937242487E12,92.04313719786849,-0.5854893094242789,
1.6867349372444397E12,91.56528332614303,-0.4275340699578222,
1.6867349372463923E12,91.16510444860909,-0.09569286965405693,
1.6867349372483452E12,91.3485818722147,0.4050461739827477,
1.6867349372502979E12,91.65596425405712,0.7159952391282286,
1.6867349372522507E12,92.10672443390581,0.5156230251591446,
1.6867349372542034E12,92.58258294056849,0.16643969261073108,
1.686734937256156E12,92.48596399855185,-0.3034867770526541,
1.686734937258109E12,92.17326865672294,-0.7248188494468165,
1.6867349372600615E12,91.74397668170651,-0.532905836073529,
1.6867349372620144E12,91.22289791380142,-0.2396837161939762,
1.686734937263967E12,91.25905489036101,0.2197527047134861,
1.6867349372659197E12,91.54407956728295,0.6789954955044296,
1.6867349372678726E12,91.94264772844089,0.6008847180263172,
1.6867349372698252E12,92.47137138899622,0.28012798794228017,
1.686734937271778E12,92.5660430470359,-0.14512925562967968,
1.6867349372737307E12,92.28349454603527,-0.6726890459391975,
1.6867349372756833E12,91.89944687280419,-0.634616026330516,
1.6867349372776362E12,91.37408888825841,-0.3606279072311957,
1.6867349372795889E12,91.18116353128316,0.04244116264595404,
1.6867349372815417E12,91.31377116605891,0.5568849530008084,
1.6867349372834944E12,91.61307592547846,0.7013200131140657,
1.686734937285447E12,92.0375357513669,0.5258354930446717,
1.6867349372874E12,92.54765203169808,0.20601225278405513,
1.6867349372893525E12,92.52906869201685,-0.26239196302169643,
1.6867349372913054E12,92.22827341893594,-0.7224014189741784,
1.686734937293258E12,91.82198824349899,-0.6047828349827368,
1.6867349372952107E12,91.2852110010637,-0.30043895242495433,
1.6867349372971636E12,91.2349662663499,0.12280524492821562,
1.6867349372991162E12,91.5122498884499,0.6385195241762339,
1.686734937301069E12,91.89341269652995,0.6170136010576105,
1.6867349373030217E12,92.41071709919578,0.32786219313762044,
1.6867349373049744E12,92.59260784696832,-0.09070449931927686,
1.6867349373069272E12,92.32599822592714,-0.6161245706417718,
1.68673493730888E12,91.96137531137967,-0.677254905841895,
1.6867349373108328E12,91.45176388244994,-0.39690743099855924,
1.6867349373127854E12,91.18777468058761,-0.02273509572442773,
1.686734937314738E12,91.42464615003024,0.5024992588168105,
1.686734937316691E12,91.75977131840841,0.6885920757577395,
1.6867349373186436E12,91.97541498844802,0.4283098471418715,
1.6867349373205962E12,92.49565233735073,0.2656177414184281,
1.686734937322549E12,92.56140322225133,-0.16626689641513043,
1.6867349373245017E12,92.27173872054482,-0.6791632826772238,
1.6867349373264546E12,91.88064716823664,-0.614480525317633,
1.6867349373284072E12,91.34879823710102,-0.330469534209645,
1.6867349373303599E12,91.20763216904388,0.07697947418230243,
1.6867349373323127E12,91.47337633053975,0.6042569219031173,
1.6867349373342654E12,91.83129193361107,0.6723583315810765,
1.6867349373362183E12,92.33705687567276,0.390249907397416,
1.686734937338171E12,92.6050608482036,-0.0022362958754922045,
1.6867349373401235E12,92.35874144539136,-0.5301371680051993,
1.6867349373420764E12,92.01390389767137,-0.6782852250955445,
1.686734937344029E12,91.51847638906754,-0.4097604947167678,
1.686734937345982E12,91.1685422462474,-0.054438016908018506,
1.6867349373479346E12,91.38324833511294,0.4575468680767842,
1.6867349373498872E12,91.69911702860797,0.7240455600272782,
1.68673493735184E12,92.16365243955283,0.48961629991709926,
1.6867349373537927E12,92.59457917148819,0.14024039800683666,
1.6867349373557456E12,92.57957787270283,-0.35005495426804345,
1.6867349373576982E12,92.30953045402333,-0.7087248412241526,
1.686734937359651E12,91.93250261932643,-0.6292784265134793,
1.6867349373616038E12,91.42180936596506,-0.35549088874546286,
1.6867349373635564E12,91.18515426140875,0.0354435622958112,
1.6867349373655093E12,91.43438256991497,0.549576039481596,
1.686734937367462E12,91.77208007638615,0.710384625607629,
1.6867349373694146E12,92.26346877377853,0.43139544801909174,
1.6867349373713674E12,92.60833036204144,0.06623679564892224,
1.68673493737332E12,92.40098067931105,-0.4608400582742258,
1.686734937375273E12,92.06833168685417,-0.6905077443759454,
1.6867349373772256E12,91.59473299122648,-0.45343791609598233,
1.6867349373791782E12,91.17563420641035,-0.10523608849820508,
1.686734937381131E12,91.3465865071519,0.367305357172807,
1.6867349373830837E12,91.64545853679878,0.7270376340453519,
1.6867349373850366E12,92.09076151340344,0.5129899385745142,
1.6867349373869893E12,92.58046737279106,0.19008889427230047,
1.686734937388942E12,92.50394632465995,-0.2972895556418579,
1.6867349373908948E12,92.19601101033024,-0.7104135381966022,
1.6867349373928474E12,91.77217623855785,-0.5568512716443238,
1.6867349373948003E12,91.49525322460174,-0.24210261832560478,
1.686734937396753E12,91.17270126017347,0.18283795009994755,
1.6867349373987056E12,91.40079793144838,0.46590825964240923,
1.6867349374006584E12,91.722268071445,0.6940737793656202,
1.686734937402611E12,92.19497726698445,0.4609992950696137,
1.686734937404564E12,92.60746490249613,0.08928645317028304,
1.6867349374065166E12,92.44822034615919,-0.3965345299115511,
1.6867349374084692E12,92.12855324688195,-0.7363149041288343,
1.686734937410422E12,91.67238394487508,-0.49987341183557843,
1.6867349374123748E12,91.19263087025851,-0.1953461656138651,
1.6867349374143276E12,91.30352989477275,0.29053390806173796,
1.6867349374162803E12,91.59773805909214,0.6878559895564067,
1.686734937418233E12,92.02198152009426,0.546309367307434,
1.6867349374201858E12,92.53452589526088,0.21182361682732911,
1.6867349374221384E12,92.53967057144689,-0.2268334293827169,
1.686734937424091E12,92.24024560931272,-0.7233206074970117,
1.686734937426044E12,91.83400851496162,-0.5997720540999655,
1.6867349374279966E12,91.30244807034111,-0.3206501710816109,
1.6867349374299495E12,91.2215516433976,0.1146965071594828,
1.686734937431902E12,91.49525322460174,0.6189121906485991,
1.6867349374338547E12,91.6648832954824,0.6417037456646741,
1.6867349374358076E12,92.11742247550755,0.4767033827016994,
1.6867349374377603E12,92.58255890002556,0.1525047539810464,
1.6867349374397131E12,92.48685349864009,-0.33648128275978156,
1.6867349374416658E12,92.17949515734058,-0.7233626383467935,
1.6867349374436184E12,91.74058696515405,-0.5502199998443507,
1.6867349374455713E12,91.22837915758838,-0.23009789557247212,
1.686734937447524E12,91.26689210735465,0.21113253129121898,
1.6867349374494768E12,91.54912808129725,0.6990363382581606,
1.6867349374514294E12,91.95118212117936,0.59368986397804,
1.686734937453382E12,92.47699687604073,0.29221700578899085,
1.686734937455335E12,92.5697452906464,-0.14501018555941608,
1.6867349374572876E12,92.28565819489855,-0.6558061653682892,
1.6867349374592405E12,91.89786019697112,-0.6268062816842088,
1.686734937461193E12,91.370362604105,-0.33254174607522746,
1.6867349374631458E12,91.20417033086264,0.05962933109575522,
1.6867349374650986E12,91.46308697816774,0.5964629410896304,
1.6867349374670513E12,91.81746862142904,0.6854764900389978,
1.6867349374690042E12,92.31837737381983,0.40983998680522615,
1.6867349374709568E12,92.55479207294688,0.02085252911262271,
1.6867349374729094E12,92.52546261057806,-0.49883890874554654,
1.6867349374748623E12,92.23151889223085,-0.6960039436229015,
1.686734937476815E12,91.8154251752804,-0.5590018229745908,
1.6867349374787678E12,91.28143663582443,-0.2632525876685857,
1.6867349374807205E12,91.23999073982128,0.16432394378303164,
1.686734937482673E12,91.51193736139187,0.6715554912288475,
1.686734937484626E12,91.89588887245125,0.6548254947615191,
1.6867349374865786E12,92.41857835673234,0.3518067431098969,
1.6867349374885315E12,92.59602160406371,-0.053854186766709965,
1.6867349374904841E12,92.33123906428484,-0.5921991035342606,
1.6867349374924368E12,91.9645486630458,-0.6429957662916934,
1.6867349374943896E12,91.45250913928062,-0.36662610008814667,
1.6867349374963423E12,91.18760639678713,0.012876208960519659,
1.6867349374982952E12,91.43077648847618,0.5299212061792542,
1.6867349375002478E12,91.7672719678011,0.7091218310096523,
1.6867349375022004E12,92.25327558357822,0.4429108746300994,
1.6867349375041533E12,92.61717728183794,0.07465729887088843,
1.686734937506106E12,92.42665597915523,-0.43389146530880585,
1.6867349375080588E12,92.09650720316257,-0.702355297023764,
1.6867349375100115E12,91.88338779013012,-0.46374961398017206,
1.686734937511964E12,91.35204371039595,-0.13384356722973473,
1.686734937513917E12,91.21938799453433,0.08421324689615262,
1.6867349375158696E12,91.48462730462877,0.5985867521635828,
1.6867349375178225E12,91.84417766461901,0.6674355746222114,
1.6867349375197751E12,92.3529717150893,0.3713605398011524,
1.6867349375217278E12,92.61193644348023,-0.015944113591933654,
1.6867349375236807E12,92.37054535196766,-0.5546563698486329,
1.6867349375256333E12,92.02133242543528,-0.6913442270136818,
1.686734937527586E12,91.52388551122573,-0.43282890192807605,
1.6867349375295388E12,91.17784593635947,-0.06974592209684127,
1.6867349375314915E12,91.38810452478384,0.4285034429892089,
1.6867349375334443E12,91.7067619212582,0.7023558440475,
1.686734937535397E12,92.16937408876905,0.44830324475391387,
1.6867349375373496E12,92.5999161720176,0.1099819041835648,
1.6867349375393025E12,92.45519210360752,-0.3933369192097705,
1.6867349375412551E12,92.1383137073096,-0.7361060912879476,
1.686734937543208E12,91.68805837886235,-0.5293994073438487,
1.6867349375451606E12,91.19325592437457,-0.20574392114274007,
1.6867349375471133E12,91.18599568041114,0.25072376052257694,
1.6867349375490662E12,91.43582500249049,0.6900236853677125,
1.6867349375510188E12,91.7810712394402,0.6669156513732891,
1.6867349375529717E12,92.27731612650348,0.40578482637279095,
1.6867349375549243E12,92.61763405215352,0.02063194695090169,
1.686734937556877E12,92.40828900436033,-0.48065195158979646,
1.6867349375588298E12,92.07878932302665,-0.7254369280698749,
1.6867349375607825E12,91.61389330393791,-0.46636478018400795,
1.6867349375627354E12,91.18407243697712,-0.13679561246896235,
1.686734937564688E12,91.3598088057608,0.3648055102432753,
1.6867349375666406E12,91.66644593077254,0.7015406390568496,
1.6867349375685935E12,92.11557135370231,0.504698828503957,
1.6867349375705461E12,92.59150198199376,0.16392251486675605,
1.686734937572499E12,92.51733690706932,-0.2989512978715796,
1.6867349375744517E12,92.21380101209493,-0.7261827706259658,
1.6867349375764043E12,91.78234538821523,-0.5443704938189453,
1.6867349375783572E12,91.25787690375768,-0.253642935800084,
1.6867349375803098E12,91.27234931059868,0.20256994770851544,
1.6867349375822627E12,91.55600367657388,0.6841124234584748,
1.6867349375842153E12,91.95327364841386,0.6184635608610277,
1.686734937586168E12,92.21327212015058,0.3023403451045051,
1.6867349375881208E12,92.63006301284588,-0.11074700366392311,
1.6867349375900735E12,92.46427942883327,-0.39588545758321264,
1.6867349375920264E12,92.14309777535173,-0.7078992073326371,
1.686734937593979E12,91.69046243315488,-0.4880456730110961,
1.6867349375959316E12,91.20811297990238,-0.1563270129776129,
1.6867349375978845E12,91.32742619444046,0.30811391224539314,
1.6867349375998372E12,91.6214901155023,0.7304860525801515,
1.68673493760179E12,92.04176688692175,0.5629532563674472,
1.6867349376037427E12,92.56149938442303,0.2527410432712202,
1.6867349376056953E12,92.55996078967581,-0.21172690686584156,
1.6867349376076482E12,92.26142532762988,-0.6825103340824008,
1.6867349376096008E12,91.8573038010562,-0.5799052685329645,
1.6867349376115537E12,91.31848311247226,-0.2772582845054062,
1.6867349376135063E12,91.24253903737136,0.13871538060877053,
1.686734937615459E12,91.51749072680761,0.6591331997310845,
1.6867349376174119E12,91.89290784512852,0.6560553758889076,
1.6867349376193645E12,92.40905830173394,0.36391647542603234,
1.6867349376213174E12,92.6138116058284,-0.05046738406669942,
1.68673493762327E12,92.35340444486195,-0.5753383786695928,
1.6867349376252227E12,92.19271745594948,-0.6642714133523815,
1.6867349376271755E12,91.75767979117391,-0.3844740848004786,
1.6867349376291282E12,91.24015902362176,-0.22273191292153563,
1.6867349376310808E12,91.28588413626561,0.23532396285078092,
1.6867349376330337E12,91.56980294821298,0.6927634155537915,
1.6867349376349863E12,91.97305901524135,0.6020207850122308,
1.6867349376369392E12,92.49928245933245,0.28720289454583187,
1.6867349376388918E12,92.58532356246197,-0.14726148398813363,
1.6867349376408445E12,92.30311162906229,-0.6666410144094109,
1.6867349376427974E12,91.91127481992342,-0.6241594525008287,
1.68673493764475E12,91.39046049799052,-0.3487546209473068,
1.686734937646703E12,91.22186417045563,0.056841798673093566,
1.6867349376486555E12,91.48090102047536,0.5762203006011603,
1.6867349376506082E12,91.83850409648865,0.6721359721708362,
1.686734937652561E12,92.33748960544541,0.3820630622214559,
1.6867349376545137E12,92.62874078298499,-0.002890329784583423,
1.6867349376564666E12,92.39761500330151,-0.5358674632862,
1.6867349376584192E12,92.04789722536769,-0.6994859404736555,
1.6867349376603718E12,91.56350432596656,-0.44548797220618835,
1.6867349376623247E12,91.30006805659151,-0.08875640226865812,
1.6867349376642773E12,91.2550401196925,0.4078460796272274,
1.6867349376662302E12,91.53388637708264,0.6464258354212302,
1.6867349376681829E12,91.91706859076841,0.6134496895969291,
1.6867349376701355E12,92.43942150744854,0.32151615572712483,
1.6867349376720884E12,92.61494151134589,-0.09752312535057261,
1.686734937674041E12,92.34684137664334,-0.6296369156102748,
1.686734937675994E12,91.97753055622545,-0.673292819013319,
1.6867349376779465E12,91.46294273491019,-0.3996000102640312,
1.6867349376798992E12,91.20462710117822,-0.017098015544437347,
1.686734937681852E12,91.45104266616218,0.5072021262311428,
1.6867349376838047E12,91.78736986168661,0.6839700399404067,
1.6867349376857576E12,92.27007992308297,0.42064164700192425,
1.6867349376877102E12,92.63496728360263,0.05405337208658234,
1.6867349376896628E12,92.43987827776412,-0.4567229266575541,
1.6867349376916157E12,92.10612342033268,-0.7207534331279227,
1.6867349376935684E12,91.63307765719227,-0.4765579318763348,
1.6867349376955212E12,91.19421754609158,-0.13843995795508893,
1.6867349376974739E12,91.35355826460024,0.3482927528774315,
1.6867349376994265E12,91.6558440513425,0.7145348563069851,
1.6867349377013794E12,91.85552480087973,0.5243780052381689,
1.686734937703332E12,92.36528047306703,0.19724487567154522,
1.686734937705285E12,92.62097568762013,-0.015948954516485713,
1.6867349377072375E12,92.37917590687783,-0.5436544293972543,
1.6867349377091902E12,92.02717427736611,-0.6768999359932929,
1.686734937711143E12,91.52970332261364,-0.40745956585013127,
1.6867349377130957E12,91.18897670773387,-0.04909078358953738,
1.6867349377150486E12,91.40793797269718,0.4644003036499259,
1.6867349377170012E12,91.72784547740366,0.7215186118191638,
1.6867349377189539E12,92.19574656435806,0.4852498682201864,
1.6867349377209067E12,92.62292297159708,0.13346162661871006,
1.6867349377228594E12,92.47899224110353,-0.35850950427716227,
1.6867349377248123E12,92.16021464191452,-0.7079045105558414,
1.686734937726765E12,91.70851688089175,-0.49188698652440305,
1.6867349377287175E12,91.21695989969888,-0.1774018634119971,
1.6867349377306704E12,91.31312207139993,0.29118513768094295,
1.686734937732623E12,91.60367607319468,0.7167184581589203,
1.6867349377345757E12,92.02688579085101,0.5781223816797859,
1.6867349377365286E12,92.54556050446358,0.2553995023686784,
1.6867349377384812E12,92.57174065570919,-0.1886297683366469,
1.686734937740434E12,92.42252100577208,-0.6900902647204606,
1.6867349377423867E12,92.0850158236443,-0.6910714691840237,
1.6867349377443394E12,91.61141712801661,-0.4486711905660897,
1.6867349377462922E12,91.19436178934913,-0.09712810134784501,
1.6867349377482449E12,91.37663718580849,0.39097913335909223,
1.6867349377501978E12,91.6770718507455,0.7375863199201695,
1.6867349377521504E12,92.12581262498847,0.5194757075233397,
1.686734937754103E12,92.60751298358198,0.19624304255806072,
1.686734937756056E12,92.52724161075453,-0.27794933350954554,
1.6867349377580085E12,92.21853699905121,-0.7015299921083528,
1.6867349377599614E12,91.7910721052971,-0.5355098899925915,
1.686734937761914E12,91.26367067460266,-0.22265636698577745,
1.6867349377638667E12,91.28256654134192,0.2164525534066091,
1.6867349377658196E12,91.5644899882265,0.6985848686775602,
1.6867349377677722E12,91.96070217617776,0.6142265465677601,
1.686734937769725E12,92.48678137701131,0.31689223698247876,
1.6867349377716777E12,92.59856990161379,-0.12480890330472463,
1.6867349377736304E12,92.32061314431188,-0.64305782807027,
1.6867349377755833E12,91.93471434927555,-0.6387611552087711,
1.686734937777536E12,91.68548604076935,-0.3488505541549405,
1.6867349377794888E12,91.2072715609,0.038427658068659415,
1.6867349377814414E12,91.33002257307639,0.3047362462827407,
1.686734937783394E12,91.62161031821692,0.7118220116660575,
1.686734937785347E12,92.04782510373892,0.5524167448660876,
1.6867349377872996E12,92.56207635745324,0.22190532718172493,
1.6867349377892524E12,92.55190720779585,-0.22427248485186815,
1.686734937791205E12,92.25769904347646,-0.7155043859994018,
1.6867349377931577E12,91.85040416523665,-0.5896469381381995,
1.6867349377951106E12,91.31016508462012,-0.303965167953289,
1.6867349377970632E12,91.24573642958042,0.12294434356506959,
1.686734937799016E12,91.52092852444592,0.6348285055942194,
1.6867349378009688E12,91.89362906141628,0.6400060931311189,
1.6867349378029214E12,92.4146357076926,0.3341712256625102,
1.6867349378048743E12,92.61397988962888,-0.06316092993269413,
1.686734937806827E12,92.35265918803127,-0.6087345711327816,
1.6867349378087798E12,91.98495908398935,-0.6778303895397059,
1.6867349378107324E12,91.47825656075358,-0.40910437962507,
1.686734937812685E12,91.19602058681097,-0.02679948249341864,
1.686734937814638E12,91.43190639399367,0.48361847348689907,
1.6867349378165906E12,91.57516398928531,0.6952748960658067,
1.6867349378185435E12,91.97753055622545,0.4295819206254834,
1.686734937820496E12,92.50723987904071,0.2757870977158284,
1.6867349378224487E12,92.58416961640155,-0.1641458219662597,
1.6867349378244016E12,92.29880837187866,-0.6748128571396136,
1.6867349378263542E12,91.90802934662851,-0.6336548291042561,
1.686734937828307E12,91.37481010454617,-0.34294954746662454,
1.6867349378302598E12,91.22061406222352,0.056001260585956364,
1.6867349378322124E12,91.48212708816455,0.5889144803612675,
1.6867349378341653E12,91.83787904237259,0.6708434986537648,
1.686734937836118E12,92.34203326805829,0.39519605687631254,
1.6867349378380706E12,92.62371630951361,-6.265136454039331E-4,
1.6867349378400234E12,92.3873256509295,-0.5150286608326032,
1.686734937841976E12,92.04164668420712,-0.6875466785405597,
1.686734937843929E12,91.55391214933938,-0.4222753428924077,
1.6867349378458816E12,91.18609184258284,-0.06858731567063073,
1.6867349378478342E12,91.39507628223217,0.43643110773009924,
1.686734937849787E12,91.70851688089175,0.7237224554819125,
1.6867349378517397E12,92.1690375211681,0.4984056266624444,
1.6867349378536926E12,92.61520595731807,0.14464081264366324,
1.6867349378556453E12,92.60520509146116,-0.3341871888937492,
1.686734937857598E12,92.33789829467514,-0.6017899501808306,
1.6867349378595508E12,91.96688059570955,-0.6415144002098131,
1.6867349378615034E12,91.44907134164231,-0.3669766598163026,
1.6867349378634563E12,91.20003535747949,0.021232230912624016,
1.686734937865409E12,91.44560950346107,0.5391220206638231,
1.6867349378673616E12,91.78309064504592,0.7193781658950519,
1.6867349378693145E12,92.26887789593671,0.4466581640768374,
1.686734937871267E12,92.62876482352792,0.08178193301690763,
1.68673493787322E12,92.42742527652884,-0.43757361247666854,
1.6867349378751726E12,92.09977671700041,-0.691764236395238,
1.6867349378771252E12,91.6240624535953,-0.4502444435253708,
1.6867349378790781E12,91.18885650501925,-0.11010850793965028,
1.6867349378810308E12,91.3500002642473,0.3676075242709152,
1.6867349378829836E12,91.65033876701261,0.7359818099361639,
1.6867349378849363E12,92.09819004116734,0.5358393925827384,
1.686734937886889E12,92.5889777249866,0.20524692175811812,
1.6867349378888418E12,92.53053516513529,-0.2728633320527965,
1.6867349378907944E12,92.22618189170144,-0.7088854079118748,
1.6867349378927473E12,92.02741468279537,-0.5545627215484628,
1.6867349378947E12,91.52602511954608,-0.24976135925273743,
1.6867349378966526E12,91.19077974845327,-0.05498783831428702,
1.6867349378986055E12,91.41190466227985,0.45696499122146395,
1.686734937900558E12,91.7314034777566,0.7079331775779129,
1.686734937902511E12,92.20098740271577,0.4680183049007099,
1.6867349379044636E12,92.62239407965272,0.1115440483037664,
1.6867349379064163E12,92.47319847025854,-0.38434624320417154,
1.6867349379083691E12,92.15535845224362,-0.7292136256253903,
1.6867349379103218E12,91.70012673141083,-0.5089656207359553,
1.6867349379122747E12,91.21359422368934,-0.192790127485598,
1.6867349379142273E12,91.31494915266225,0.27611531995420946,
1.68673493791618E12,91.61168157398879,0.7000423438414245,
1.6867349379181328E12,92.03044379120395,0.556845370400631,
1.6867349379200854E12,92.55077730227836,0.2353707694670859,
1.6867349379220383E12,92.57150025027994,-0.21585096233431222,
1.686734937923991E12,92.27512843709728,-0.7094896124074014,
1.6867349379259436E12,91.87377157296001,-0.6130947975542607,
1.6867349379278965E12,91.33538361414872,-0.3239546925941755,
1.686734937929849E12,91.24287560497231,0.09925819648991445,
1.6867349379318018E12,91.3773103210104,0.6172262884179511,
1.6867349379337546E12,91.68411572982261,0.6431922955308897,
1.6867349379357073E12,92.13167851746223,0.4939984619711387,
1.6867349379376602E12,92.60599842937769,0.1560731824581091,
1.6867349379396128E12,92.52459715103275,-0.3167585359436098,
1.6867349379415654E12,92.22019579651305,-0.7344290706166066,
1.6867349379435183E12,91.78551873988137,-0.5506547783160397,
1.686734937945471E12,91.25927125524734,-0.2510211476009817,
1.6867349379474238E12,91.28537928486418,0.19992165951434274,
1.6867349379493765E12,91.57129346187435,0.6806428516387552,
1.686734937951329E12,91.96954909597426,0.6032273548035649,
1.686734937953282E12,92.49625335092387,0.2933730336400399,
1.6867349379552346E12,92.60246446956768,-0.13065001857535438,
1.6867349379571875E12,92.32407498249312,-0.6593639931081029,
1.6867349379591401E12,91.93690203868175,-0.636524713092353,
1.6867349379610928E12,91.41264991911054,-0.3560691961534969,
1.6867349379630457E12,91.22330660303115,0.04448742026742754,
1.6867349379649983E12,91.48186264219237,0.5689510848180116,
1.6867349379669512E12,91.83429700147673,0.6853702223011955,
1.6867349379689038E12,92.0601819428025,0.4056596822631964,
1.6867349379708564E12,92.57416875054464,0.024553452764594075,
1.6867349379728093E12,92.56952892576007,-0.2265548144821056,
1.686734937974762E12,92.26895001756549,-0.699944637528759,
1.6867349379767148E12,91.8574961253996,-0.5791844473149391,
1.6867349379786675E12,91.32079100459309,-0.282871660984555,
1.68673493798062E12,91.25624214683876,0.14125951770829295,
1.686734937982573E12,91.53056878215895,0.6600075860057686,
1.6867349379845256E12,91.91007279277716,0.6476824743980467,
1.6867349379864785E12,92.43151216882613,0.3576223029993835,
1.6867349379884312E12,92.6268415800939,-0.05187613859942946,
1.6867349379903838E12,92.36823745984684,-0.5884244531156556,
1.6867349379923367E12,92.00246059923894,-0.6550744124756884,
1.6867349379942893E12,91.48727176435055,-0.37674164999833515,
1.6867349379962422E12,91.2073677230717,-0.006247141974116105,
1.6867349379981948E12,91.44741254418047,0.5172760107728069,
1.6867349380001475E12,91.77941244197835,0.7144643702369319,
1.6867349380021003E12,92.26402170626581,0.45498371645775887,
1.686734938004053E12,92.64258813570994,0.08521571299069886,
1.6867349380060059E12,92.46206769888414,-0.4203513916767127,
1.6867349380079585E12,92.31328077871967,-0.7045276487946357,
1.6867349380099111E12,91.91879950985903,-0.46821388376362516,
1.686734938011864E12,91.38942675464473,-0.32673036257821453,
1.6867349380138167E12,91.23874063158917,0.0753788449826061,
1.6867349380157695E12,91.49804192758107,0.6035163826318214,
1.6867349380177222E12,91.85761632811423,0.6795487976672093,
1.6867349380196748E12,92.36518431089533,0.3928510119979817,
1.6867349380216277E12,92.64210732485144,6.019566605985345E-4,
1.6867349380235803E12,92.40831304490325,-0.5336902951752392,
1.6867349380255332E12,92.05984537520155,-0.6898418155338623,
1.6867349380274858E12,91.56564393428691,-0.4291165795765209,
1.6867349380294385E12,91.20486750660747,-0.07570346987219213,
1.6867349380313914E12,91.41543862208987,0.4279616001043857,
1.686734938033344E12,91.73152368047123,0.7070347549156581,
1.6867349380352966E12,92.19266937486363,0.4704576334070147,
1.6867349380372495E12,92.63741941898101,0.12201746883380715,
1.6867349380392021E12,92.50711967632608,-0.3656059824866352,
1.686734938041155E12,92.19149138826029,-0.7362162648228678,
1.6867349380431077E12,91.74450557365087,-0.5268372905103663,
1.6867349380450603E12,91.24289964551524,-0.21609634976589748,
1.6867349380470132E12,91.2205900216806,0.24507846788063853,
1.6867349380489658E12,91.46808741109619,0.6887486143138899,
1.6867349380509187E12,91.80633785005465,0.6796280541190451,
1.6867349380528713E12,92.29426470926579,0.4101242834401435,
1.686734938054824E12,92.64852614981248,0.040172038726279356,
1.6867349380567769E12,92.4535573466886,-0.4794475421262586,
1.6867349380587295E12,92.11922551622695,-0.7272796499343388,
1.6867349380606824E12,91.64593934765729,-0.4830612966799255,
1.686734938062635E12,91.20693499329904,-0.14428941718355506,
1.6867349380645876E12,91.37365615848576,0.34064409453146777,
1.6867349380665405E12,91.67447547210958,0.7018542533328642,
1.6867349380684932E12,92.119850570343,0.5001884423553588,
1.686734938070446E12,92.61097482176322,0.17384227142413866,
1.6867349380723987E12,92.54762799115515,-0.30166687252741275,
1.6867349380743513E12,92.24274582577695,-0.7356413890692711,
1.6867349380763042E12,91.81441547247753,-0.5737776317950882,
1.6867349380782568E12,91.28150875745321,-0.27232486071156375,
1.6867349380802097E12,91.28335987925846,0.17672435276375537,
1.6867349380821624E12,91.56485059637038,0.6684686925524773,
1.686734938084115E12,91.7469096279434,0.6116457187119384,
1.6867349380860679E12,92.21858508013706,0.3080592845352936,
1.6867349380880205E12,92.63792427038244,0.11126177658755335,
1.6867349380899734E12,92.48935371510431,-0.3895741563273686,
1.686734938091926E12,92.16870095356714,-0.7225830647891176,
1.6867349380938787E12,91.7133249894768,-0.5011316714419578,
1.6867349380958315E12,91.22265750837217,-0.17922266882252935,
1.6867349380977842E12,91.33096015425048,0.29045617136253415,
1.686734938099737E12,91.62365376436557,0.7143474318539522,
1.6867349381016897E12,92.04760873885259,0.5650189680057772,
1.6867349381036423E12,92.56351879002875,0.24963758853446058,
1.6867349381055952E12,92.58176556210903,-0.20594238935338544,
1.6867349381075479E12,92.28529758675467,-0.6901399025971439,
1.6867349381095007E12,91.87788250580023,-0.5893280855148911,
1.6867349381114534E12,91.34360547982917,-0.29047691805397596,
1.686734938113406E12,91.25215525454146,0.12757318036824872,
1.686734938115359E12,91.52477501131396,0.6497250818849205,
1.6867349381173115E12,91.89687453471119,0.6695955641561135,
1.6867349381192644E12,92.41076518028163,0.37467005044015045,
1.686734938121217E12,92.63477495925923,-0.02764824555742104,
1.6867349381231697E12,92.53390084114483,-0.5650187356649975,
1.6867349381251226E12,92.22067660737156,-0.658563963664444,
1.6867349381270752E12,91.79556768682413,-0.5235807992354448,
1.686734938129028E12,91.26138682302476,-0.21785627846996977,
1.6867349381309807E12,91.29538015072109,0.22976380551573658,
1.6867349381329333E12,91.58300120627895,0.7029882899857343,
1.6867349381348862E12,91.97861238065708,0.6211500309721582,
1.6867349381368389E12,92.50711967632608,0.3156644067504983,
1.6867349381387915E12,92.60984491624573,-0.11992684878207328,
1.6867349381407444E12,92.33010915876736,-0.6472259649709103,
1.686734938142697E12,91.94519602599097,-0.6224717743402357,
1.68673493814465E12,91.41277012182516,-0.3375607717350494,
1.6867349381466025E12,91.22703288718456,0.05895689920085906,
1.6867349381485552E12,91.48900268344117,0.5847163293441063,
1.686734938150508E12,91.84033117775097,0.6888763551461623,
1.6867349381524607E12,92.341480335571,0.409604933186807,
1.6867349381544136E12,92.64595381171948,0.020153698602113815,
1.6867349381563662E12,92.41879472161867,-0.5049178281472556,
1.6867349381583188E12,92.07309171435337,-0.6966680345304257,
1.6867349381602717E12,91.58855457169469,-0.4388738947464615,
1.6867349381622244E12,91.31701663935382,-0.0888687633684815,
1.6867349381641772E12,91.25862216058836,0.13630224885983783,
1.68673493816613E12,91.53254010667882,0.6479472286388821,
1.6867349381680825E12,91.91589060416507,0.6426281740976146,
1.6867349381700354E12,92.43882049387541,0.3399052688252923,
1.686734938171988E12,92.62592803946274,-0.07220879544890055,
1.686734938173941E12,92.36138590511314,-0.6107530935468996,
1.6867349381758936E12,91.99500803093211,-0.6759596945645716,
1.6867349381778462E12,91.48301658825278,-0.4030679125167268,
1.686734938179799E12,91.20734368252877,-0.024237985784219863,
1.6867349381817517E12,91.44972043630129,0.4962591431352594,
1.6867349381837046E12,91.7835474153615,0.6908771364233589,
1.6867349381856572E12,92.26529585504085,0.4318973653756188,
1.6867349381876099E12,92.64782897406765,0.06535079325967541,
1.6867349381895627E12,92.45699514432691,-0.44958981144563076,
1.6867349381915154E12,92.1260289898748,-0.7303419326910391,
1.6867349381934683E12,91.65856063269305,-0.4893865624609497,
1.686734938195421E12,91.20515599312257,-0.15833350945657398,
1.6867349381973735E12,91.35461604848895,0.3278658939381846,
1.6867349381993264E12,91.4983544546391,0.7053662421817861,
1.686734938201279E12,91.85677490911185,0.5271102256323998,
1.686734938203232E12,92.36323702691838,0.3771194518280777,
1.6867349382051846E12,92.64114570313443,-0.014450298911199092,
1.6867349382071372E12,92.40453867966399,-0.5451811444336051,
1.68673493820909E12,92.05792213176753,-0.6923561938802628,
1.6867349382110427E12,91.56470635311283,-0.43458189363654726,
1.6867349382129956E12,91.20316062805978,-0.07096393362209516,
1.6867349382149482E12,91.41231335150958,0.4348955923544245,
1.686734938216901E12,91.73236509947361,0.7163094777986333,
1.6867349382188538E12,92.1947368615552,0.4806154859789357,
1.6867349382208064E12,92.63951094621551,0.13698708119462036,
1.6867349382227593E12,92.50683118981098,-0.35931095219927045,
1.686734938224712E12,92.18774106356395,-0.715009071760129,
1.6867349382266646E12,91.74198131664372,-0.506731737803069,
1.6867349382286174E12,91.23691355032685,-0.18544718024809279,
1.68673493823057E12,91.31867543681567,0.2732123509678478,
1.6867349382325227E12,91.6125470335341,0.7231602984652648,
1.6867349382344756E12,92.02597225021985,0.5901920309900974,
1.6867349382364282E12,92.55012820761938,0.27963730986675694,
1.686734938238381E12,92.6517716231074,-0.1701820116602784,
1.6867349382403337E12,92.44528739992231,-0.6669579908001513,
1.6867349382422864E12,92.11124405597576,-0.6922397385414418,
1.6867349382442393E12,91.64038598224155,-0.4402695056846928,
1.686734938246192E12,91.20611761483958,-0.10509496245899792,
1.6867349382481448E12,91.37505050997542,0.3868429185417432,
1.6867349382500974E12,91.6786825671215,0.7379680706410039,
1.68673493825205E12,92.12141320563315,0.5464550058176662,
1.686734938254003E12,92.61626374120678,0.20897982924827496,
1.6867349382559556E12,92.54782031549856,-0.2614855199445241,
1.6867349382579084E12,92.23909166325231,-0.7035769595180007,
1.686734938259861E12,91.81080939103875,-0.5347337593561475,
1.6867349382618137E12,91.28129239256688,-0.23687362051882657,
1.6867349382637666E12,91.28412917663206,0.20987616075328278,
1.6867349382657192E12,91.56824031292284,0.6982485554261052,
1.686734938267672E12,91.96296198721274,0.6354951186403679,
1.6867349382696248E12,92.49103655310908,0.32815572813027094,
1.6867349382715774E12,92.62032659296115,-0.10038071644441564,
1.6867349382735303E12,92.34258620054557,-0.6353562777834256,
1.686734938275483E12,92.16966257528415,-0.6345132533342467,
1.6867349382774358E12,91.71397408413578,-0.35460535069009075,
1.6867349382793884E12,91.22823491433083,-0.17434624252948785,
1.686734938281341E12,91.337547263012,0.29633211269775844,
1.686734938283294E12,91.62956773792519,0.7131004488675605,
1.6867349382852466E12,92.05727303710854,0.5642174005209547,
1.6867349382871995E12,92.57347157479981,0.24025378349671425,
1.686734938289152E12,92.58626114363605,-0.2146544984794405,
1.6867349382911047E12,92.28594668141365,-0.7093340371960457,
1.6867349382930576E12,91.88370031718814,-0.599693153690935,
1.6867349382950103E12,91.34531235837686,-0.3116697201067427,
1.6867349382969631E12,91.26157914736817,0.11457490377335999,
1.6867349382989158E12,91.53686740440537,0.6252017569406517,
1.6867349383008684E12,91.90968814409035,0.6467571469989208,
1.6867349383028213E12,92.42949276322041,0.3444387174273818,
1.686734938304774E12,92.64516047380295,-0.058595645891136285,
1.6867349383067268E12,92.38331088026098,-0.5992459491788402,
1.6867349383086794E12,92.02085161457677,-0.685206379227526,
1.686734938310632E12,91.51398080754052,-0.4194418831408682,
1.686734938312585E12,91.21323361554546,-0.04072636254371406,
1.6867349383145376E12,91.30487616517657,0.46586267575677714,
1.6867349383164905E12,91.5788662328958,0.6976098385583525,
1.686734938318443E12,91.98363685412846,0.5890173721003077,
1.6867349383203958E12,92.5111344469946,0.2846257487077054,
1.6867349383223486E12,92.6072485376098,-0.1485949606421395,
1.6867349383243013E12,92.31630988712826,-0.6728952489727855,
1.6867349383262542E12,91.9281031999711,-0.6473901102998058,
1.6867349383282068E12,91.40248076945315,-0.3489088038628467,
1.6867349383301594E12,91.22152760285468,0.03784808292857435,
1.6867349383321123E12,91.48546872363116,0.5781071553631298,
1.686734938334065E12,91.84266311041472,0.671615796800449,
1.6867349383360176E12,92.3454710656966,0.40441803106262697,
1.6867349383379705E12,92.64792513623935,0.009926167614644488,
1.686734938339923E12,92.42103049211072,-0.5092949764001445,
1.686734938341876E12,92.07261090349486,-0.7049744511738936,
1.6867349383438286E12,91.58913154472489,-0.42926359236043127,
1.6867349383457812E12,91.20806489881653,-0.08824377979810248,
1.6867349383477341E12,91.40942848635855,0.4270445455770619,
1.6867349383496868E12,91.71705127363022,0.720839830373873,
1.6867349383516396E12,92.18125011697413,0.5080759066172154,
1.6867349383535923E12,92.45273996822914,0.1513254762486132,
1.686734938355545E12,92.63638567563522,-0.3187017022617549,
1.6867349383574978E12,92.36907887884922,-0.6016506608791194,
1.6867349383594504E12,92.00048927471907,-0.6455566895081097,
1.6867349383614033E12,91.48837762932511,-0.38340183148232465,
1.686734938363356E12,91.22006112973624,0.014287210948171945,
1.6867349383653086E12,91.46433708639985,0.5251206164184563,
1.6867349383672615E12,91.79662547071284,0.7262990706911251,
1.686734938369214E12,92.28642749227215,0.4493534860044091,
1.686734938371167E12,92.65766155612408,0.09667646274684688,
1.6867349383731196E12,92.46524105055028,-0.4279903916214129,
1.6867349383750723E12,92.13727996396382,-0.6904171359364629,
1.6867349383770251E12,91.6650756198258,-0.46094398183598495,
1.6867349383789778E12,91.21472412920683,-0.11439268668951762,
1.6867349383809307E12,91.37029048247622,0.35427552457060585,
1.6867349383828833E12,91.667263309232,0.7489618185629193,
1.686734938384836E12,92.1106190018597,0.5449293921373973,
1.6867349383867888E12,92.61107098393492,0.22551524255765162,
1.6867349383887415E12,92.56284565482684,-0.255204918389773,
1.6867349383906943E12,92.40903426119101,-0.69767038811959,
1.686734938392647E12,92.05929244271427,-0.5614435899810334,
1.6867349383945996E12,91.56336008270901,-0.4073750226320585,
1.6867349383965525E12,91.21179118296995,-0.062093127533560194,
1.6867349383985051E12,91.42464615003024,0.45410771173088144,
1.686734938400458E12,91.73957726235119,0.7190509100023222,
1.6867349384024106E12,92.2082476466792,0.49162061304848514,
1.6867349384043633E12,92.64828574438323,0.13229170162882956,
1.6867349384063162E12,92.50505218963451,-0.35227040562019374,
1.6867349384082688E12,92.19004895568477,-0.7261945348722952,
1.6867349384102217E12,91.73784634326057,-0.5088654294903493,
1.6867349384121743E12,91.23777900987216,-0.20077921483272562,
1.686734938414127E12,91.32946964058911,0.26934028381139813,
1.6867349384160798E12,91.61728302049038,0.702637505396829,
1.6867349384180325E12,92.03294400766818,0.577324739962574,
1.6867349384199854E12,92.55935977610268,0.24731951358167625,
1.686734938421938E12,92.59498786071792,-0.19140829425515715,
1.6867349384238906E12,92.30349627774909,-0.7067599819759119,
1.6867349384258435E12,91.8986054538018,-0.6182594348696248,
1.6867349384277961E12,91.3660833874643,-0.3339766735225004,
1.686734938429749E12,91.20991602062178,0.0859280395810312,
1.6867349384317017E12,91.38271944316858,0.6012480476477566,
1.6867349384336543E12,91.68332239190607,0.7091354154054762,
1.6867349384356072E12,92.13398640958306,0.4946199790313797,
1.6867349384375598E12,92.62150457956449,0.16659792892217493,
1.6867349384395125E12,92.55154659965197,-0.3114412335410784,
1.6867349384414653E12,92.24618362341526,-0.7399096166772924,
1.686734938443418E12,91.81720417545687,-0.5772691128958726,
1.6867349384453708E12,91.28388877120281,-0.2680703761312319,
1.6867349384473235E12,91.29408196140312,0.16928725408707793,
1.6867349384492761E12,91.57759208412077,0.6694454428134012,
1.686734938451229E12,91.97476589378904,0.5965701396202258,
1.6867349384531816E12,92.50197500014008,0.2928518635070495,
1.6867349384551345E12,92.62547126914716,-0.13890707304153901,
1.6867349384570872E12,92.3460480387268,-0.6637613704240327,
1.6867349384590398E12,91.96440441978825,-0.6634389416860572,
1.6867349384609927E12,91.4410658408482,-0.3750752635144786,
1.6867349384629453E12,91.23688950978392,0.018092834421965787,
1.6867349384648982E12,91.49296937302384,0.5499365133514336,
1.6867349384668508E12,91.83963400200614,0.6786229627148616,
1.6867349384688035E12,92.06749026785178,0.4040864772849615,
1.6867349384707563E12,92.5859245760351,0.23149110888097416,
1.686734938472709E12,92.59207895502396,-0.22164637391235265,
1.6867349384746619E12,92.29412046600824,-0.7061504882146951,
1.6867349384766145E12,91.88360415501644,-0.5950311651929839,
1.6867349384785671E12,91.34576912869244,-0.30090080336203323,
1.68673493848052E12,91.264848661206,0.1277750435799503,
1.6867349384824727E12,91.53830983698089,0.6469203714626497,
1.6867349384844255E12,91.91394332018812,0.6597523907363179,
1.6867349384863782E12,92.4349018853786,0.3631799226432839,
1.6867349384883308E12,92.64681927126479,-0.040038283781164474,
1.6867349384902837E12,92.38684484007099,-0.5739330985435639,
1.6867349384922363E12,92.02529911501794,-0.6597291902248706,
1.6867349384941892E12,91.51600021314624,-0.37924207526486514,
1.6867349384961418E12,91.22121507579665,-0.009641051961477312,
1.6867349384980945E12,91.45587481529016,0.5160227036526613,
1.6867349385000474E12,91.78686501028518,0.7272614263647019,
1.686734938502E12,92.25890107062273,0.47188754465340793,
1.686734938503953E12,92.65883954272742,0.10375537086354875,
1.6867349385059055E12,92.62458176905892,-0.3960631297499543,
1.6867349385078582E12,92.34359590334843,-0.7037414059031496,
1.686734938509811E12,91.95098979683596,-0.6045047934545712,
1.6867349385117637E12,91.4205111766471,-0.33869738337097466,
1.6867349385137166E12,91.2438131861464,0.07417973976694693,
1.6867349385156692E12,91.50583106348886,0.5922714393554588,
1.6867349385176218E12,91.85797693625811,0.6969809252228022,
1.6867349385195747E12,92.36588148664016,0.39546405587221023,
1.6867349385215273E12,92.66073874561852,0.01632504820055621,
1.6867349385234802E12,92.43216126348511,-0.5209745570948494,
1.6867349385254329E12,92.0824434855513,-0.6923974063751621,
1.6867349385273855E12,91.59797846452139,-0.44113788902026774,
1.6867349385293384E12,91.2184984944461,-0.07395595129711605,
1.686734938531291E12,91.4191889467862,0.4152794659666284,
1.686734938533244E12,91.73308631576137,0.7281752721478888,
1.6867349385351965E12,92.19137118554566,0.486947025357959,
1.6867349385371492E12,92.6523485961376,0.14942240413314442,
1.686734938539102E12,92.53010243536264,-0.34900756580103814,
1.6867349385410547E12,92.21610890421576,-0.7187270593283352,
1.6867349385430073E12,91.77263300887343,-0.5327757979441594,
1.6867349385449602E12,91.4966475760914,-0.2133588920524804,
1.6867349385469128E12,91.22299407597312,0.23512769100573158,
1.6867349385488657E12,91.46678922177823,0.5188463528843074,
1.6867349385508184E12,91.80470309313573,0.6866440348675606,
1.686734938552771E12,92.28645153281508,0.43197962915093197,
1.6867349385547239E12,92.65816640752551,0.04756929443359816,
1.6867349385566765E12,92.46891925361784,-0.4515181230666227,
1.6867349385586294E12,92.13913108576907,-0.735470176078323,
1.686734938560582E12,91.66791240389098,-0.47783235170258903,
1.6867349385625347E12,91.21587807526724,-0.1608461662468036,
1.6867349385644875E12,91.3734157530565,0.34259636292870244,
1.6867349385664402E12,91.67334556659209,0.6989968877965641,
1.686734938568393E12,92.11165274520549,0.5204203646995657,
1.6867349385703457E12,92.61099886230615,0.1782158774655914,
1.6867349385722983E12,92.56573051997788,-0.28003144516304157,
1.6867349385742512E12,92.25959824636756,-0.7439305041843021,
1.6867349385762039E12,91.839032988433,-0.574398474194066,
1.6867349385781567E12,91.30239998925526,-0.29019004371137574,
1.6867349385801094E12,91.28232613591267,0.16702176641872143,
1.686734938582062E12,91.56186956904764,0.6555610019769116,
1.686734938584015E12,91.74085141112623,0.6209514825205515,
1.6867349385859675E12,92.21106039020145,0.456129670593892,
1.6867349385879204E12,92.64537683868927,0.11962451221080507,
1.686734938589873E12,92.50767260881337,-0.3863828243399675,
1.6867349385918257E12,92.18966430699797,-0.7252373310636788,
1.6867349385937786E12,91.73700492425819,-0.5215052091300743,
1.6867349385957312E12,91.24035134796516,-0.19452650166666596,
1.686734938597684E12,91.32910903244523,0.2659747398009318,
1.6867349385996367E12,91.62093718301502,0.7172513496271337,
1.6867349386015894E12,92.03852141362684,0.5667903641135997,
1.6867349386035422E12,92.56532183074815,0.26208198273448124,
1.6867349386054949E12,92.59643029329344,-0.19642826517768378,
1.6867349386074478E12,92.30977085945258,-0.6872673956206131,
1.6867349386094004E12,91.90622630590912,-0.6009931686696725,
1.686734938611353E12,91.37110786093568,-0.3051270623089329,
1.686734938613306E12,91.2557132548944,0.1059745275710454,
1.6867349386152585E12,91.52907826849759,0.6391761581145963,
1.6867349386172114E12,91.89865353488766,0.6710634751239424,
1.686734938619164E12,92.41139023439769,0.3850203394088402,
1.6867349386211167E12,92.62773108018213,-0.022831294969879082,
1.6867349386230696E12,92.557003802896,-0.5512901053761868,
1.6867349386250222E12,92.24712120458935,-0.7096745894903386,
1.686734938626975E12,91.82023328386545,-0.5342175406808148,
1.6867349386289277E12,91.28662939309629,-0.23512152338812586,
1.6867349386308804E12,91.29747167795558,0.21678566673560307,
1.6867349386328333E12,91.58300120627895,0.7034771417387686,
1.686734938634786E12,91.98041542137648,0.6333740267672018,
1.6867349386367385E12,92.50925928464643,0.327839959196835,
1.6867349386386914E12,92.62888502624254,-0.1026281757025679,
1.686734938640644E12,92.34948583636513,-0.6354778838139802,
1.686734938642597E12,91.96649594702275,-0.6280508214380207,
1.6867349386445496E12,91.44058502998969,-0.34345187349630185,
1.6867349386465022E12,91.236865469241,0.049761655547440393,
1.686734938648455E12,91.49287321085214,0.5786740596024262,
1.6867349386504077E12,91.84146108326846,0.6971125732395267,
1.6867349386523606E12,92.3427064032602,0.4200035409246094,
1.6867349386543132E12,92.65859913729817,0.03231316074263932,
1.6867349386562659E12,92.44163323739767,-0.48809925498124684,
1.6867349386582188E12,92.09857468985415,-0.6991940738208242,
1.6867349386601714E12,91.88379647935984,-0.4395714411472352,
1.6867349386621243E12,91.34663458823775,-0.10057605553563635,
1.686734938664077E12,91.26939232381888,0.13144605483115318,
1.6867349386660295E12,91.54453633759853,0.6415818133257468,
1.6867349386679824E12,91.92312680758558,0.6525319841485709,
1.686734938669935E12,92.44124858871086,0.3457650547311835,
1.686734938671888E12,92.65097828519086,-0.05931870263986807,
1.6867349386738406E12,92.39131638105509,-0.6063576426590771,
1.6867349386757932E12,92.02609245293448,-0.6812023731608264,
1.686734938677746E12,91.51821194309537,-0.41723437036212013,
1.6867349386796987E12,91.22758581967184,-0.0348788784475383,
1.6867349386816516E12,91.46063484278936,0.4763929795573539,
1.6867349386836042E12,91.79023068629472,0.6956765025585441,
1.686734938685557E12,92.27116174751461,0.4259056915973154,
1.6867349386875098E12,92.66626807049133,0.07236334782695747,
1.6867349386894624E12,92.48807956632928,-0.44677016980753387,
1.6867349386914153E12,92.16348415575236,-0.7329271292618313,
1.686734938693368E12,91.7059926238846,-0.5080815876229718,
1.6867349386953206E12,91.23167271196914,-0.1678590568761579,
1.6867349386972734E12,91.24936655156213,0.29442822860042156,
1.686734938699226E12,91.51467798328535,0.7041733851212886,
1.686734938701179E12,91.86905962654666,0.6602634075322155,
1.6867349387031316E12,92.37463224426496,0.389620238502086,
1.6867349387050842E12,92.66992223301597,-0.012522560392485615,
1.686734938707037E12,92.43874837224664,-0.5321696379800653,
1.6867349387089897E12,92.08917483757037,-0.7182806656082265,
1.6867349387109426E12,91.60172878921773,-0.44499867991390707,
1.6867349387128953E12,91.22349892737455,-0.1021445101282438,
1.686734938714848E12,91.43106497499129,0.4173912287732651,
1.6867349387168008E12,91.74467385745135,0.7030666182736528,
1.6867349387187534E12,92.20483388958381,0.4864132549734337,
1.6867349387207063E12,92.65840681295477,0.1276062380237905,
1.686734938722659E12,92.53531923317742,-0.34472275590189727,
1.6867349387246116E12,92.22264793189143,-0.7332202617238215,
1.6867349387265645E12,91.77732091474385,-0.5202679478044249,
1.686734938728517E12,91.26605068835227,-0.21534061957722814,
1.68673493873047E12,91.3351672492624,0.25524140135476375,
1.6867349387324226E12,91.6242547779387,0.7072707493229125,
1.6867349387343752E12,92.03558846738996,0.5972631383015206,
1.6867349387363281E12,92.30633306181427,0.2743199590816123,
1.6867349387382808E12,92.67504286865905,-0.15706986563505113,
1.6867349387402334E12,92.47815082210114,-0.4420262210923845,
1.6867349387421863E12,92.14670385679052,-0.7038376001517994,
1.686734938744139E12,91.6745956748242,-0.46904943549233746,
1.6867349387460918E12,91.23119190111063,-0.11962467749496586,
1.6867349387480444E12,91.38658997057955,0.35307159897861734,
1.686734938749997E12,91.68745736528922,0.7358855138342222,
1.68673493875195E12,92.12410574644078,0.5375383087859307,
1.6867349387539026E12,92.6232354986551,0.21836635171673646,
1.6867349387558555E12,92.57763058872588,-0.2619943821991952,
1.686734938757808E12,92.27065689611318,-0.7039551179237741,
1.6867349387597607E12,91.84650959728276,-0.5555855994694666,
1.6867349387617136E12,91.30917942236019,-0.24617336332772316,
1.6867349387636663E12,91.29802461044287,0.18296458758740317,
1.6867349387656191E12,91.57850562475193,0.6911656314490188,
1.6867349387675718E12,91.96584685236377,0.6367603703328991,
1.6867349387695244E12,92.49601294549461,0.3388330075805725,
1.6867349387714773E12,92.64463158185859,-0.09079393127777224,
1.68673493877343E12,92.36907887884922,-0.619880871759671,
1.6867349387753828E12,92.20053063240019,-0.6488885206364793,
1.6867349387773354E12,91.75364097996247,-0.3624542652216282,
1.686734938779288E12,91.25205909236976,-0.19221860624349668,
1.686734938781241E12,91.34447093937447,0.2842412633246693,
1.6867349387831936E12,91.63961668486795,0.7100643770567245,
1.6867349387851465E12,92.05470069901554,0.57799642341694,
1.686734938787099E12,92.58342435957087,0.25181782707891986,
1.6867349387890518E12,92.61349907877037,-0.1957858352490631,
1.6867349387910046E12,92.3162618060424,-0.7002130938823641,
1.6867349387929573E12,91.9142077661603,-0.6069390487503047,
1.6867349387949102E12,91.3753149559476,-0.3224139753856391,
1.6867349387968628E12,91.2694163643618,0.09919165190251265,
1.6867349387988154E12,91.54191591841968,0.6192320922066512,
1.6867349388007683E12,91.91129886046635,0.6539111424164509,
1.686734938802721E12,92.42756951978639,0.3611046752773424,
1.6867349388046738E12,92.66554685420357,-0.039277113543169276,
1.6867349388066265E12,92.41095750462503,-0.5798643558065295,
1.686734938808579E12,92.05546999638915,-0.6924639520072499,
1.686734938810532E12,91.54953677052698,-0.423831047813472,
1.6867349388124846E12,91.29562055615034,-0.051795284917242675,
1.6867349388144375E12,91.31184792262489,0.4569957454611975,
1.6867349388163901E12,91.59405985602457,0.6754864323695328,
1.6867349388183428E12,91.99279630098299,0.6016398640305726,
1.6867349388202957E12,92.52224117782607,0.29361076525571533,
1.6867349388222483E12,92.63802043255414,-0.13554085004882152,
1.6867349388242012E12,92.36035216176735,-0.6675834051503232,
1.6867349388261538E12,91.97832389414198,-0.6581313727562479,
1.6867349388281064E12,91.45212449059382,-0.37133968698537395,
1.6867349388300593E12,91.2511455517386,0.025562865078146098,
1.686734938832012E12,91.50914865841254,0.5553514995970881,
1.6867349388339648E12,91.85994826077798,0.6753359649969263,
1.6867349388359175E12,92.35917417516401,0.39653598109936206,
1.68673493883787E12,92.6730955846821,0.014755728492106327,
1.686734938839823E12,92.4516581437975,-0.5109382358634053,
1.6867349388417756E12,92.11153254249086,-0.7126267586236201,
1.6867349388437283E12,91.62173052093155,-0.45682798971043137,
1.6867349388456812E12,91.22746561695722,-0.10542791698635941,
1.6867349388476338E12,91.41500589231721,0.39513346116884135,
1.6867349388495867E12,91.72832628826217,0.7145695165705765,
1.6867349388515393E12,91.93243049769765,0.4963924690039599,
1.686734938853492E12,92.45300441420132,0.1575515983419401,
1.6867349388554448E12,92.6548247720589,-0.059016804643796356,
1.6867349388573975E12,92.39725439515763,-0.5913488553976642,
1.6867349388593503E12,92.0325833995243,-0.6710088336986715,
1.686734938861303E12,91.51931780806993,-0.3904889169646668,
1.6867349388632556E12,91.23470182037772,-0.014987333687046639,
1.6867349388652085E12,91.4712367222194,0.5089885959740066,
1.6867349388671611E12,91.80140953875497,0.7149212861805422,
1.686734938869114E12,92.28524950566882,0.4615237889917308,
1.6867349388710667E12,92.67235032785142,0.09176863590125155,
1.6867349388730193E12,92.49101251256616,-0.4095033178495369,
1.6867349388749722E12,92.16944621039782,-0.7054078762373226,
1.6867349388769248E12,91.70291543439016,-0.4654687224837141,
1.6867349388788777E12,91.24025518579346,-0.14189859165757573,
1.6867349388808303E12,91.38339257837049,0.3461456874090655,
1.686734938882783E12,91.67490820188223,0.734492653951404,
1.6867349388847358E12,92.11146042086209,0.5635865867188877,
1.6867349388866885E12,92.61905244418611,0.23152743885984237,
1.6867349388886414E12,92.59597352297786,-0.2185597540331904,
1.686734938890594E12,92.44148899414012,-0.7010031587039894,
1.6867349388925466E12,92.0919635405497,-0.6758224723609771,
1.6867349388944995E12,91.60305101907862,-0.41923635336383414,
1.6867349388964521E12,91.22960522527757,-0.05731753474726393,
1.686734938898405E12,91.43714723235138,0.4389981528082619,
1.6867349389003577E12,91.74856842540524,0.7418500442179359,
1.6867349389023103E12,92.20904098459573,0.5009686008211751,
1.6867349389042632E12,92.65804620481089,0.15896350169385248,
1.6867349389062158E12,92.54144957162336,-0.33855063417767833,
1.6867349389081687E12,92.22577320247171,-0.709216797862781,
1.6867349389101213E12,91.77520534696643,-0.5119820353218929,
1.686734938912074E12,91.27206082408358,-0.1908208365844959,
1.6867349389140269E12,91.34348527711454,0.2588455563063139,
1.6867349389159795E12,91.6336786707654,0.7199564032796154,
1.6867349389179324E12,92.04539700890346,0.5863137909554431,
1.686734938919885E12,92.56895195272986,0.2811669394191267,
1.6867349389218376E12,92.62821189104064,-0.17467675079224962,
1.6867349389237905E12,92.3384271866195,-0.6784323905452818,
1.6867349389257432E12,91.94127741749415,-0.6196973411871224,
1.686734938927696E12,91.6794518644951,-0.32310095661390714,
1.6867349389296487E12,91.23698567195562,0.07807647796464624,
1.6867349389316013E12,91.39550901200482,0.3563275538665051,
1.6867349389335542E12,91.69690529865885,0.7151874989838458,
1.6867349389355068E12,92.14134281571819,0.5258015000129997,
1.6867349389374597E12,92.6365539594357,0.18488206211033703,
1.6867349389394124E12,92.57890473750092,-0.27972002978208726,
1.686734938941365E12,92.27517651818313,-0.7321599347642748,
1.6867349389433179E12,91.85129366532489,-0.5692567750949405,
1.6867349389452705E12,91.31788209889913,-0.2769440222788291,
1.6867349389472231E12,91.30898709801679,0.1672038566623524,
1.686734938949176E12,91.5858139498012,0.6582914470968699,
1.6867349389511287E12,91.98339644869921,0.6201709821602939,
1.6867349389530815E12,92.5057012842935,0.30568544024495725,
1.6867349389550342E12,92.65148313659229,-0.11100553724952805,
1.6867349389569868E12,92.37708437964334,-0.6553123623680682,
1.6867349389589397E12,91.99806117988362,-0.6590548907167224,
1.6867349389608923E12,91.47734302012242,-0.38502354154435636,
1.6867349389628452E12,91.24811644333002,0.009665716884347562,
1.6867349389647979E12,91.4979698059523,0.5338887109326835,
1.6867349389667505E12,91.64492964485443,0.6897662273562278,
1.6867349389687034E12,92.06583147038994,0.40874596507988503,
1.686734938970656E12,92.58666983286578,0.24734013567959773,
1.686734938972609E12,92.61277786248262,-0.20458172085019316,
1.6867349389745615E12,92.32159880657181,-0.6991666740872624,
1.6867349389765142E12,91.91778980705617,-0.6113988292735247,
1.686734938978467E12,91.38005094290388,-0.30943278221288306,
1.6867349389804197E12,91.2778786354715,0.10134279270553072,
1.6867349389823726E12,91.54994545975671,0.6366775727383105,
1.6867349389843252E12,91.91901587474536,0.6627221698000063,
1.6867349389862778E12,92.43249783108607,0.3718546875466182,
1.6867349389882307E12,92.66364765131247,-0.03400946882252103,
1.6867349389901833E12,92.4120633695996,-0.5668046109836536,
1.6867349389921362E12,92.05546999638915,-0.6763500741470491,
1.6867349389940889E12,91.55261396002142,-0.3980540166316606,
1.6867349389960415E12,91.2372501179278,-0.03220971419625832,
1.6867349389979944E12,91.46462557291495,0.48952957615226717,
1.686734938999947E12,91.78857188883288,0.7240244711044194,
1.6867349390019E12,92.26498332798282,0.47455236610153884,
1.6867349390038525E12,92.67131658450563,0.11559294916248584,
1.6867349390058052E12,92.64374208177036,-0.3855935215545755,
1.686734939007758E12,92.36186671597164,-0.6430086062556472,
1.6867349390097107E12,91.97882874554341,-0.6224189287604547,
1.6867349390116636E12,91.45678835592132,-0.34376213926824184,
1.6867349390136162E12,91.25845387678788,0.05894309684825409,
1.6867349390155688E12,91.51455778057073,0.5847562502765045,
1.6867349390175217E12,91.86735274799896,0.7041064954390933,
1.6867349390194744E12,92.36263601334525,0.42271976144633494,
1.6867349390214272E12,92.67446589562884,0.04386619290440326,
1.68673493902338E12,92.45399007646125,-0.4861375711126781,
1.6867349390253325E12,92.11131617760454,-0.6843306907167984,
1.6867349390272854E12,91.62322103459292,-0.43020595378795656,
1.686734939029238E12,91.23126402273941,-0.07699828487965221,
1.686734939031191E12,91.422795028225,0.4182976186479176,
1.6867349390331436E12,91.73113903178442,0.7342631805409758,
1.6867349390350962E12,92.1897845097126,0.5088763271385628,
1.686734939037049E12,92.65391123142774,0.17044841187354673,
1.6867349390390017E12,92.55159468073782,-0.3232801680811996,
1.6867349390409543E12,92.23760114959094,-0.7161735763039402,
1.6867349390429072E12,92.03347289961253,-0.5324851941213549,
1.6867349390448599E12,91.52511157891492,-0.2180986971204994,
1.6867349390468127E12,91.24121680751047,-0.017712805612182338,
1.6867349390487654E12,91.47671796600636,0.5036425850678643,
1.686734939050718E12,91.80780432317309,0.7019423098619884,
1.686734939052671E12,92.29073074945578,0.4448887363186197,
1.6867349390546235E12,92.67287921979577,0.07696366781198984,
1.6867349390565764E12,92.49538789137856,-0.4360317592126206,
1.686734939058529E12,92.16480638561325,-0.7235631692625951,
1.6867349390604817E12,91.69957379892355,-0.4869888026743148,
1.6867349390624346E12,91.24463056460586,-0.15932137759154044,
1.6867349390643872E12,91.38240691611055,0.32434000949419334,
1.68673493906634E12,91.6790672158083,0.7094136431591843,
1.6867349390682927E12,92.10821494756718,0.5276877561315954,
1.6867349390702454E12,92.61970153884509,0.2046365745364384,
1.6867349390721982E12,92.59457917148819,-0.2624863265579034,
1.686734939074151E12,92.28755739778964,-0.7260315385489464,
1.6867349390761038E12,91.87172812681136,-0.5836872012822468,
1.6867349390780564E12,91.33966283078942,-0.29240904632554543,
1.686734939080009E12,91.29893815107403,0.14314892247622965,
1.686734939081962E12,91.44058502998969,0.651186442295484,
1.6867349390839146E12,91.754434317879,0.6269079618421589,
1.6867349390858674E12,92.21079594422928,0.4735743791776276,
1.68673493908782E12,92.6620609754794,0.1226379348097651,
1.6867349390897727E12,92.53543943589204,-0.3644105522663833,
1.6867349390917256E12,92.22007559379843,-0.7394856049212423,
1.6867349390936782E12,91.777272833658,-0.5293750190718143,
1.686734939095631E12,91.2698010130486,-0.2198091150314253,
1.6867349390975837E12,91.34471134480373,0.24391045542734832,
1.6867349390995364E12,91.63204391384649,0.690826566768423,
1.6867349391014893E12,92.0442911439289,0.578110810381575,
1.686734939103442E12,92.5683268986138,0.2601059907217482,
1.6867349391053948E12,92.6202785118753,-0.18600843817210586,
1.6867349391073474E12,92.32616650972761,-0.6917232213736042,
1.6867349391093E12,91.92935330820322,-0.6153490731396007,
1.686734939111253E12,91.39449930920196,-0.3279673512259668,
1.6867349391132056E12,91.25946357959074,0.08910577380146202,
1.6867349391151584E12,91.52859745763908,0.6096117316975406,
1.686734939117111E12,91.88605629039482,0.6745268200446187,
1.6867349391190637E12,92.1211728002039,0.38146501949132566,
1.6867349391210166E12,92.6209516470772,-0.009843206753814863,
1.6867349391229692E12,92.56681234440951,-0.27515886133604867,
1.686734939124922E12,92.26089643568552,-0.7117170619212623,
1.6867349391268748E12,91.84412958353316,-0.5568757162803292,
1.6867349391288274E12,91.31658390958117,-0.24962772476989398,
1.6867349391307803E12,91.30622243558038,0.1909622185521882,
1.686734939132733E12,91.58860265278054,0.6918476623449642,
1.6867349391346858E12,91.9796701645458,0.6302159582711354,
1.6867349391366384E12,92.50719179795486,0.33186974288033083,
1.686734939138591E12,92.65270920428148,-0.09609409415307299,
1.686734939140544E12,92.37482456860836,-0.6245208435312624,
1.6867349391424966E12,91.99798905825484,-0.6375528678353962,
1.6867349391444492E12,91.47890565541256,-0.3562303266843105,
1.686734939146402E12,91.25364576820283,0.037205288332539936,
1.6867349391483547E12,91.50609550946103,0.5634409540022531,
1.6867349391503076E12,91.84679808379786,0.705114280137773,
1.6867349391522603E12,92.33785021358929,0.4340251699382599,
1.686734939154213E12,92.67429761182837,0.05098259559364108,
1.6867349391561658E12,92.46805379407253,-0.4670816258623618,
1.6867349391581184E12,92.318641819792,-0.7001860032183641,
1.6867349391600713E12,91.91807829357127,-0.4483458676363898,
1.686734939162024E12,91.3826473215398,-0.30507147773062626,
1.6867349391639766E12,91.28011440596354,0.11716175420442274,
1.6867349391659294E12,91.55254183839264,0.6345545495383229,
1.686734939167882E12,91.92240559129782,0.6613724079109056,
1.686734939169835E12,92.43701745315602,0.36703135207823717,
1.6867349391717876E12,92.66309471882519,-0.03663453779965132,
1.6867349391737402E12,92.41175084254157,-0.5772136169146269,
1.686734939175693E12,92.05200815820791,-0.6797349915751855,
1.6867349391776458E12,91.54977717595624,-0.4101559628334584,
1.6867349391795986E12,91.23462969874895,-0.04183733024248673,
1.6867349391815513E12,91.46575547843244,0.4695307803887288,
1.686734939183504E12,91.78866805100458,0.6996261878922918,
1.6867349391854568E12,92.26202634120301,0.44631355625023783,
1.6867349391874094E12,92.6689125302131,0.08847139941931123,
1.6867349391893623E12,92.5035135948873,-0.4157259763086648,
1.686734939191315E12,92.1805529412293,-0.7324207559698839,
1.6867349391932676E12,91.72659536917155,-0.5060080621058507,
1.6867349391952205E12,91.2463855242394,-0.183364811735856,
1.686734939197173E12,91.25479971426324,0.29244351668980795,
1.686734939199126E12,91.51150463161922,0.6976048792803354,
1.6867349392010786E12,91.86369858547432,0.6697576658281337,
1.6867349392030312E12,92.3618186348858,0.3869352984129169,
1.6867349392049841E12,92.67001839518767,0.0039175994437128745,
1.6867349392069368E12,92.44492679177843,-0.5187642279664756,
1.6867349392088896E12,92.10641190684778,-0.7168291904558155,
1.6867349392108423E12,91.61831676383616,-0.4609965623499734,
1.686734939212795E12,91.23056684699458,-0.10773190867203686,
1.6867349392147478E12,91.42512696088875,0.38769600340298893,
1.6867349392167004E12,91.73710108642989,0.7001433253868452,
1.6867349392186533E12,92.1920683612905,0.48025341926542214,
1.686734939220606E12,92.65179566365032,0.13829298090265177,
1.6867349392225586E12,92.5472914235542,-0.3487697616197808,
1.6867349392245115E12,92.23514901421257,-0.7399659550179418,
1.686734939226464E12,91.79491859216515,-0.5469701804698642,
1.686734939228417E12,91.285114838892,-0.23786295532982638,
1.6867349392303696E12,91.33519128980532,0.22264613613127976,
1.6867349392323223E12,91.62062465595699,0.6874990400627808,
1.6867349392342751E12,91.81165081004113,0.5873929540969289,
1.6867349392362278E12,92.29544269586913,0.27405724237039014,
1.6867349392381807E12,92.67364851716938,0.07241953868231873,
1.6867349392401333E12,92.4924789856846,-0.43537506989248403,
1.686734939242086E12,92.16540739918638,-0.7165776614914123,
1.6867349392440388E12,91.69635236617157,-0.4806146859674117,
1.6867349392459915E12,91.24364490234592,-0.1467228631483777,
1.686734939247944E12,91.38793624098336,0.336555611780079,
1.686734939249897E12,91.68877959515011,0.7215275441152321,
1.6867349392518496E12,92.12006693522933,0.5442810823863259,
1.6867349392538025E12,92.62462985014477,0.21644385751891396,
1.6867349392557551E12,92.59008358996117,-0.24864107501182894,
1.6867349392577078E12,92.2929424794049,-0.7010148623524464,
1.6867349392596606E12,91.87028569423585,-0.5631714680985913,
1.6867349392616133E12,91.33923010101677,-0.26420858962196125,
1.6867349392635662E12,91.30288080011377,0.16494582966268745,
1.6867349392655188E12,91.58203958456194,0.6783830020247346,
1.6867349392674714E12,91.96707292005296,0.6532282286430848,
1.6867349392694243E12,92.485915917466,0.34773088789156226,
1.686734939271377E12,92.65388719088482,-0.06814785227525809,
1.6867349392733298E12,92.53673762521001,-0.5991753440659304,
1.6867349392752825E12,92.22079681008618,-0.6399445232298125,
1.686734939277235E12,91.77645545519854,-0.49779164006527876,
1.686734939279188E12,91.27299840525767,-0.18396246293696025,
1.6867349392811406E12,91.34783661538401,0.2723455879995017,
1.6867349392830935E12,91.63704434677494,0.7236299997093788,
1.6867349392850461E12,92.0490511714281,0.596386551847135,
1.6867349392869988E12,92.57125984485069,0.2810924375118811,
1.6867349392889517E12,92.62140841739279,-0.16288858973115664,
1.6867349392909043E12,92.32946006410837,-0.670233918721736,
1.6867349392928572E12,91.93216605172547,-0.5970245109803323,
1.6867349392948098E12,91.39858620149926,-0.3095077208680153,
1.6867349392967625E12,91.27357537828787,0.10056954949514213,
1.6867349392987153E12,91.54124278321777,0.6248431418511692,
1.686734939300668E12,91.90560125179306,0.6742274457486733,
1.6867349393026208E12,92.41963614062105,0.38039902675705534,
1.6867349393045735E12,92.66922505727113,-0.01928917260344938,
1.6867349393065261E12,92.41764077555825,-0.5538246534133977,
1.686734939308479E12,92.06876441662682,-0.6919372702725651,
1.6867349393104316E12,91.5721108403338,-0.42246332685388527,
1.6867349393123845E12,91.31862735572982,-0.06816621193909891,
1.6867349393143372E12,91.32040635590629,0.16729641262831293,
1.6867349393162898E12,91.60038251881392,0.663952644631972,
1.6867349393182427E12,91.98950274660223,0.6101487784280837,
1.6867349393201953E12,92.51639932589524,0.3012771021389162,
1.6867349393221482E12,92.65083404193331,-0.11518185888055248,
1.6867349393241008E12,92.37388698743428,-0.6453897041017781,
1.6867349393260535E12,91.99351751727075,-0.6554868045925434,
1.6867349393280063E12,91.477799790438,-0.37535446844126835,
1.686734939329959E12,91.26016075533558,0.015917203567513735,
1.6867349393319119E12,91.51580788880284,0.5417152030523921,
1.6867349393338645E12,91.85715955779865,0.6873583730986774,
1.6867349393358171E12,92.35030321482459,0.4083695804198066,
1.68673493933777E12,92.676990152636,0.031563342781432295,
1.6867349393397227E12,92.46430346937619,-0.4879279848089407,
1.6867349393416755E12,92.12855324688195,-0.7132727889163278,
1.6867349393436282E12,91.64805491543471,-0.4604799614929819,
1.6867349393455808E12,91.24285156442939,-0.11999560491585087,
1.6867349393475337E12,91.41906874407158,0.3721802799231068,
1.6867349393494863E12,91.55927319041172,0.7082553175773338,
1.686734939351439E12,91.92642036196634,0.503918477706884,
1.6867349393533918E12,92.44336415648829,0.3539592457686486,
1.6867349393553445E12,92.66160420516383,-0.043938635365578765,
1.6867349393572974E12,92.40913042336271,-0.5801122954197734,
1.68673493935925E12,92.0491473335998,-0.6792713060554284,
1.6867349393612026E12,91.54633937831792,-0.4078025349409058,
1.6867349393631555E12,91.23970225330618,-0.03393189329745425,
1.6867349393651082E12,91.46948176258586,0.4794855396128308,
1.686734939367061E12,91.7928751460165,0.7101042985912741,
1.6867349393690137E12,92.26411786843751,0.4573126353620765,
1.6867349393709663E12,92.66609978669085,0.10252968967115199,
1.6867349393729192E12,92.49880164847394,-0.4014158455680588,
1.6867349393748718E12,92.17487937309893,-0.7113152703530289,
1.6867349393768247E12,91.72068139561193,-0.4821782271077115,
1.6867349393787773E12,91.24765967301444,-0.1538697770804079,
1.68673493938073E12,91.37471394237447,0.31722499383778174,
1.6867349393826829E12,91.66627764697206,0.7295086269419431,
1.6867349393846355E12,92.09597831121822,0.5615786648065588,
1.6867349393865884E12,92.60546953743334,0.24387141777475374,
1.686734939388541E12,92.66917697618528,-0.21286684222220834,
1.6867349393904937E12,92.44148899414012,-0.6881075660000462,
1.6867349393924465E12,92.10215673075001,-0.6826932340525941,
1.6867349393943992E12,91.61781191243473,-0.4214350694946874,
1.686734939396352E12,91.23224968499935,-0.07241714295658747,
1.6867349393983047E12,91.42885324504216,0.4297211766447245,
1.6867349394002573E12,91.73500955919539,0.7346243307992699,
1.6867349394022102E12,92.19538595621418,0.5129125580112097,
1.6867349394041628E12,92.65427183957162,0.17104982017245013,
1.6867349394061157E12,92.54366130157248,-0.31438897697813584,
1.6867349394080684E12,92.23113424354405,-0.7054554400766616,
1.686734939410021E12,91.79414929479154,-0.5090272818802966,
1.6867349394119739E12,91.28203764939757,-0.20024527134206585,
1.6867349394139265E12,91.34158607422344,0.25575652016071215,
1.6867349394158794E12,91.62512023748401,0.7125181226720256,
1.686734939417832E12,92.03034762903225,0.6081880863624876,
1.6867349394197847E12,92.55541712706294,0.2934162707490482,
1.6867349394217375E12,92.62710602606607,-0.14750836815737955,
1.6867349394236902E12,92.34383630877768,-0.6594903003719956,
1.686734939425643E12,91.95627871627951,-0.6109668971676219,
1.6867349394275957E12,91.69779479874708,-0.32714458726643775,
1.6867349394295483E12,91.24751542975689,-0.13850675435025686,
1.6867349394315012E12,91.39418678214393,0.3443545267360707,
1.6867349394334539E12,91.6927703252757,0.71937145126187,
1.6867349394354067E12,92.12634151693283,0.5380593698835775,
1.6867349394373594E12,92.62402883657164,0.2070421391177118,
1.686734939439312E12,92.58804014381252,-0.2612684991719803,
1.686734939441265E12,92.28811033027692,-0.7186283666503686,
1.6867349394432175E12,91.8689153832891,-0.5726177792353324,
1.6867349394451702E12,91.34161011476637,-0.2770817150066573,
1.686734939447123E12,91.30982851701917,0.1569724802588899,
1.6867349394490757E12,91.58393878745304,0.6556243705437693,
1.6867349394510286E12,91.96950101488841,0.6249467913199732,
1.6867349394529812E12,92.49454647237617,0.3213401163317697,
1.6867349394549338E12,92.64984837967337,-0.09631099139619013,
1.6867349394568867E12,92.38347916406146,-0.6343413283632222,
1.6867349394588394E12,92.01315864084069,-0.6645325082365799,
1.6867349394607922E12,91.49744091400794,-0.39281815406559456,
1.6867349394627449E12,91.25364576820283,-4.809701602411779E-4,
1.6867349394646975E12,91.35312553482758,0.5104806791568598,
1.6867349394666504E12,91.6420447797034,0.6868717708593621,
1.686734939468603E12,92.05321018535417,0.5614301355309561,
1.686734939470556E12,92.57419279108757,0.2549742780130754,
1.6867349394725085E12,92.61842739007005,-0.19804981616391612,
1.6867349394744612E12,92.3269117665583,-0.6910270421365123,
1.686734939476414E12,91.93086786240751,-0.6252475441189279,
1.6867349394783667E12,91.40171147207954,-0.3246536723886622,
1.6867349394803196E12,91.27939318967579,0.07792820542910191,
1.6867349394822722E12,91.54936848672651,0.6123245997993291,
1.6867349394842249E12,91.9140154418169,0.6526876430837208,
1.6867349394861777E12,92.42422788431978,0.3736111059094806,
1.6867349394881304E12,92.66874424641263,-0.033823997844069816,
1.6867349394900833E12,92.4245404113778,-0.5539751301662236,
1.686734939492036E12,92.07056745734621,-0.689475648175914,
1.6867349394939885E12,91.57550055688627,-0.4079568224104801,
1.6867349394959414E12,91.24698653781253,-0.05442750520266774,
1.686734939497894E12,91.47020297887362,0.4737431758580011,
1.686734939499847E12,91.78722561842906,0.7121761980223802,
1.6867349395017996E12,92.25801157053449,0.4748727328703629,
1.6867349395037522E12,92.51906782615994,0.11453349656402176,
1.686734939505705E12,92.65119465007719,-0.36783114902508,
1.6867349395076577E12,92.37645932552728,-0.6330557826704405,
1.6867349395096106E12,91.99693127436613,-0.6171116986411228,
1.6867349395115632E12,91.47755938500875,-0.3491171047957567,
1.6867349395135159E12,91.26734887767023,0.05391901001312645,
1.6867349395154688E12,91.52025538924401,0.5686415085747334,
1.6867349395174214E12,91.86355434221677,0.7166254071835534,
1.6867349395193743E12,92.35893376973476,0.42737020904998585,
1.686734939521327E12,92.68302432891024,0.06007689798858822,
1.6867349395232795E12,92.47254937559956,-0.4680137734224714,
1.6867349395252324E12,92.13588561247415,-0.6731432708257385,
1.686734939527185E12,91.65382464573678,-0.42985417732348624,
1.686734939529138E12,91.2551362818642,-0.0766415724368972,
1.6867349395310906E12,91.43818097569716,0.4042479184481065,
1.6867349395330432E12,91.73902432986391,0.7420766709875852,
1.686734939534996E12,92.18738045542007,0.5173366489508818,
1.6867349395369487E12,92.6547286098872,0.19195151504756872,
1.6867349395389016E12,92.56868750675768,-0.30029481141191233,
1.6867349395408542E12,92.4166310727554,-0.6959549988426952,
1.686734939542807E12,92.05674414516419,-0.5310693561731713,
1.6867349395447598E12,91.5528784059936,-0.3821787222112618,
1.6867349395467124E12,91.25246778159949,-0.025831583938171355,
1.686734939548665E12,91.48467538571462,0.4989157972443495,
1.686734939550618E12,91.81040070180902,0.7070033732447456,
1.6867349395525706E12,92.28527354621174,0.4614339590281088,
1.6867349395545234E12,92.67537943626,0.09206152305891126,
1.686734939556476E12,92.50952373061861,-0.40474981814464533,
1.6867349395584287E12,92.18372629289543,-0.7198998657306791,
1.6867349395603816E12,91.72592223396964,-0.4850331052930204,
1.6867349395623342E12,91.26316582320123,-0.1691692022203659,
1.686734939564287E12,91.391590403508,0.3062547113592293,
1.6867349395662397E12,91.68452441905234,0.7017887673740204,
1.6867349395681924E12,92.11025839371582,0.5377722914762482,
1.6867349395701453E12,92.61657626826481,0.20857225566455845,
1.686734939572098E12,92.60604651046354,-0.2432337231914184,
1.6867349395740508E12,92.30517911575386,-0.7202865922901942,
1.6867349395760034E12,91.89423007498941,-0.5917169934242565,
1.686734939577956E12,91.36440054945953,-0.30287649554791635,
1.686734939579909E12,91.25035221382207,0.12747673871957305,
1.6867349395818616E12,91.44866265241258,0.6355971771729915,
1.6867349395838145E12,91.75741534520174,0.6991076483648917,
1.686734939585767E12,92.21646951235964,0.471428407477058,
1.6867349395877197E12,92.6663401921201,0.13106288716416797,
1.6867349395896726E12,92.55459974860348,-0.3518849465712659,
1.6867349395916252E12,92.2451739206124,-0.7393034965308759,
1.6867349395935781E12,91.80328470110314,-0.5399248730326143,
1.6867349395955308E12,91.29713511035463,-0.23643616553248945,
1.6867349395974834E12,91.35716434603903,0.22806374989461878,
1.6867349395994363E12,91.64565086114219,0.68348083699492,
1.686734939601389E12,92.04986854988756,0.5782931007550223,
1.6867349396033418E12,92.57361581805736,0.26150570732393563,
1.6867349396052944E12,92.64114570313443,-0.1688233967457633,
1.686734939607247E12,92.35499112069502,-0.685977780374187,
1.6867349396092E12,91.96551028476281,-0.6186213380316601,
1.6867349396111526E12,91.43565671869001,-0.3409045404490154,
1.6867349396131055E12,91.28953829879025,0.07318811672379782,
1.686734939615058E12,91.55150809504686,0.5916723390884916,
1.6867349396170107E12,91.91274129304186,0.673176474115357,
1.6867349396189636E12,92.1470644649344,0.38256029350366666,
1.6867349396209163E12,92.64220348702314,0.005652693300681339,
1.6867349396228691E12,92.59859394215671,-0.26093136074813456,
1.6867349396248218E12,92.29775058798995,-0.6998460339622338,
1.6867349396267744E12,91.87742573548465,-0.5620198075704275,
1.6867349396287273E12,91.35557767020596,-0.25147927289098176,
1.68673493963068E12,91.32867630267258,0.17251170631863572,
1.6867349396326328E12,91.60444537056829,0.6826268095648702,
1.6867349396345854E12,91.98955082768808,0.6363335520920147,
1.686734939636538E12,92.51127869025215,0.34918610631017816,
1.686734939638491E12,92.66660463809228,-0.08102406280903295,
1.6867349396404436E12,92.39369639480469,-0.5953002887996244,
1.6867349396423965E12,92.02474618253066,-0.6387896415670133,
1.686734939644349E12,91.51422121296977,-0.351501259603758,
1.6867349396463018E12,91.26910383730377,0.02168230590461695,
1.6867349396482546E12,91.51775517277979,0.559969891352119,
1.6867349396502073E12,91.8545391386198,0.7022473791486307,
1.68673493965216E12,92.33859547041997,0.44911402056969574,
1.6867349396541128E12,92.68792859966699,0.06515436091127141,
1.6867349396560654E12,92.63104867510582,-0.4373876384231721,
1.6867349396580183E12,92.33898011910678,-0.6953986614966925,
1.686734939659971E12,91.94055620120639,-0.5828400905470597,
1.6867349396619236E12,91.4091880809293,-0.30866937901673785,
1.6867349396638765E12,91.29655813732442,0.11545780111205657,
1.686734939665829E12,91.56256674479248,0.6212094509562844,
1.686734939667782E12,91.92875229463009,0.6782845268695237,
1.6867349396697346E12,92.43783483161548,0.3711126325794798,
1.6867349396716873E12,92.67761520675205,-0.012200808520447786,
1.6867349396736401E12,92.43199297968464,-0.557374618287215,
1.6867349396755928E12,92.07585637678977,-0.6670470189046553,
1.6867349396775457E12,91.57927492212553,-0.4133797123202717,
1.6867349396794983E12,91.25725184964162,-0.036136090865124475,
1.686734939681451E12,91.47917010138474,0.4575540688514963,
1.6867349396834038E12,91.8022028766715,0.7146596506978325,
1.6867349396853564E12,92.26457463875309,0.4538006339068338,
1.6867349396873093E12,92.67951440964315,0.11245593495592072,
1.686734939689262E12,92.52377977257329,-0.3993127834666037,
1.6867349396912146E12,92.2067330924749,-0.7151117924913752,
1.6867349396931675E12,91.75556422339649,-0.5085534715676278,
1.68673493969512E12,91.47967495278617,-0.17868551858412862,
1.686734939697073E12,91.27396002697468,0.27557831661349597,
1.6867349396990256E12,91.5284291738386,0.5496454830764586,
1.6867349397009783E12,91.8750938028209,0.6654789295348248,
1.6867349397029312E12,92.36407844592077,0.4039445287099417,
1.6867349397048838E12,92.68749586989433,0.00844384769609107,
1.6867349397068367E12,92.4696404699056,-0.49752630079440063,
1.6867349397087893E12,92.13184680126271,-0.7232991717465633,
1.686734939710742E12,91.65550748374154,-0.4567956358265579,
1.6867349397126948E12,91.25436698449059,-0.12856435622795195,
1.6867349397146475E12,91.44024846238874,0.3805827519526965,
1.6867349397166003E12,91.7467173036,0.6901779857699408,
1.686734939718553E12,92.19329442897968,0.49359602352099946,
1.6867349397205056E12,92.66525836768847,0.14308052448050285,
1.6867349397224585E12,92.57027418259075,-0.3250278031753882,
1.6867349397244111E12,92.25981461125389,-0.7368605332917058,
1.686734939726364E12,91.83148425795447,-0.5398885470180228,
1.6867349397283167E12,91.3108141792791,-0.25142808740447553,
1.6867349397302693E12,91.3462980206368,0.2107258411254223,
1.6867349397322222E12,91.6348085762829,0.6664965661446204,
1.6867349397341748E12,91.8199928784362,0.5940019034951269,
1.6867349397361277E12,92.29217318203129,0.4312083992488104,
1.6867349397380803E12,92.68643808600562,0.08448146482544246,
1.686734939740033E12,92.51161525785311,-0.4292554267876033,
1.6867349397419858E12,92.1875968203064,-0.7170366692824756,
1.6867349397439385E12,91.73255742381701,-0.49381771021721216,
1.6867349397458914E12,91.26321390428708,-0.15614352595286748,
1.686734939747844E12,91.4006296476479,0.3106313288655311,
1.6867349397497966E12,91.69654469051497,0.7118541070787924,
1.6867349397517495E12,92.11773500256558,0.5387915311858235,
1.6867349397537021E12,92.62535106643253,0.22313222544964365,
1.6867349397556548E12,92.60681580783715,-0.24099228523789848,
1.6867349397576077E12,92.30676579158693,-0.6947267473157175,
1.6867349397595603E12,91.89733130502677,-0.5717438650412389,
1.6867349397615132E12,91.3685595633856,-0.2710288786917877,
1.6867349397634658E12,91.31713684206845,0.1501316417720213,
1.6867349397654185E12,91.59172792336082,0.662881500407448,
1.6867349397673713E12,91.96971737977474,0.6486337545982132,
1.686734939769324E12,92.48740643112737,0.3527625775432077,
1.6867349397712769E12,92.66573917854697,-0.06106114121254452,
1.6867349397732295E12,92.55065709956374,-0.5873930878029022,
1.6867349397751821E12,92.24255350143355,-0.703482384980916,
1.686734939777135E12,91.79941417369217,-0.5032107734945761,
1.6867349397790876E12,91.29804865098579,-0.19567279022577627,
1.6867349397810405E12,91.36305427905572,0.2637945085889436,
1.6867349397829932E12,91.65086765895697,0.7132714303676237,
1.6867349397849458E12,92.05633545593446,0.600410544627402,
1.6867349397868987E12,92.578880696958,0.29140995955661303,
1.6867349397888513E12,92.6409293382481,-0.15309276021409557,
1.6867349397908042E12,92.35470263417992,-0.6579968975835607,
1.6867349397927568E12,91.96512563607601,-0.602008656062356,
1.6867349397947095E12,91.43599328629097,-0.31145358820002406,
1.6867349397966624E12,91.29494742094843,0.08738224101003815,
1.686734939798615E12,91.5603069337575,0.6140250179761597,
1.6867349398005679E12,91.9157223203646,0.674935955579084,
1.6867349398025205E12,92.41812158641676,0.39250838708467023,
1.6867349398044731E12,92.67540347680293,-0.00470944795025739,
1.686734939806426E12,92.43379602040403,-0.5300003437009976,
1.6867349398083787E12,92.08333298563953,-0.6848427800823589,
1.6867349398103315E12,91.86660749116828,-0.41747260773071637,
1.6867349398122842E12,91.3379319116988,-0.06581303356546583,
1.6867349398142368E12,91.32040635590629,0.17474625787048823,
1.6867349398161897E12,91.59706492389023,0.6596019407401353,
1.6867349398181423E12,91.98257907023975,0.6230568640419878,
1.6867349398200952E12,92.50762452772751,0.31135946332854997,
1.6867349398220479E12,92.65126677170596,-0.10108551623532225,
1.6867349398240005E12,92.3846571506648,-0.6342243313203262,
1.6867349398259534E12,92.01563481676199,-0.652449252081822,
1.686734939827906E12,91.50042194133067,-0.38828202219410185,
1.686734939829859E12,91.27631600018135,0.006269008435957079,
1.6867349398318115E12,91.52600107900315,0.5161986438277798,
1.6867349398337642E12,91.86244847724221,0.6817017531899119,
1.686734939835717E12,92.35025513373874,0.3969011253576337,
1.6867349398376697E12,92.69201549196428,0.03881327043489356,
1.6867349398396226E12,92.48380034968858,-0.48360949741730724,
1.6867349398415752E12,92.15379581695348,-0.7172343341596444,
1.6867349398435278E12,91.67824983734884,-0.48041173142749427,
1.6867349398454807E12,91.26184359334034,-0.13157024535957743,
1.6867349398474333E12,91.43330074548334,0.34078585229428754,
1.686734939849386E12,91.5732407458513,0.7026662444614954,
1.6867349398513389E12,91.936180822394,0.6342589286361022,
1.6867349398532915E12,92.44300354834441,0.3551444776969377,
1.6867349398552444E12,92.676990152636,-0.0546032626268903,
1.686734939857197E12,92.4304303443945,-0.5727002023651525,
1.6867349398591497E12,92.07830851216815,-0.696431450239044,
1.6867349398611025E12,91.58230403053412,-0.41693052146618254,
1.6867349398630552E12,91.26958464816228,-0.06161589067700108,
1.686734939865008E12,91.49433968397058,0.46107913961202324,
1.6867349398669607E12,91.81326152641712,0.6902173018897434,
1.6867349398689133E12,92.28241272160363,0.4582234704309333,
1.6867349398708662E12,92.68901042409863,0.09166597618313087,
1.6867349398728188E12,92.52825131355739,-0.3913763734093446,
1.6867349398747717E12,92.2125268633199,-0.7236097194247721,
1.6867349398767244E12,91.76085314284005,-0.48834560061353194,
1.686734939878677E12,91.28271078459947,-0.1753259741528786,
1.68673493988063E12,91.3997641881026,0.30009676465560264,
1.6867349398825825E12,91.68774585180432,0.7052061919496655,
1.6867349398845354E12,92.11225375877862,0.5621295656751758,
1.686734939886488E12,92.38107510976893,0.23542355773310053,
1.6867349398884407E12,92.68910658627033,-0.20357179413474286,
1.6867349398903936E12,92.47226088908445,-0.48895684760470276,
1.6867349398923462E12,92.13492399075714,-0.6830657994473393,
1.686734939894299E12,91.6562287000293,-0.43793143754547226,
1.6867349398962517E12,91.2669401884405,-0.08030176589255755,
1.6867349398982043E12,91.45402369348491,0.3995119162595098,
1.6867349399001572E12,91.75965111569379,0.7331913710326402,
1.6867349399021099E12,92.21108443074438,0.5063374841282678,
1.6867349399040627E12,92.66939334107161,0.17805422591850623,
1.6867349399060154E12,92.5699376149898,-0.30709517292414046,
1.686734939907968E12,92.26757970661875,-0.699511235767663,
1.686734939909921E12,91.83136405523985,-0.5222275524485137,
1.6867349399118735E12,91.32163242359547,-0.2078413201181292,
1.6867349399138264E12,91.36367933317177,0.23038082645049873,
1.686734939915779E12,91.64488156376858,0.7094474769355631,
1.6867349399177317E12,92.04231981940903,0.6063869705332905,
1.6867349399196846E12,92.56695658766706,0.30222228925638034,
1.6867349399216372E12,92.65335829894046,-0.13386405576981739,
1.68673493992359E12,92.37167525748515,-0.6490263944245812,
1.6867349399255427E12,92.19370311820941,-0.6209310742477666,
1.6867349399274954E12,91.7339758158496,-0.3276672498504277,
1.6867349399294482E12,91.28066733845083,-0.14945439452054698,
1.686734939931401E12,91.41659256815028,0.32676843880512113,
1.6867349399333538E12,91.70959870532339,0.7145290197846802,
1.6867349399353064E12,92.13833774785253,0.5430910962285569,
1.686734939937259E12,92.63725113518053,0.21308517416781758,
1.686734939939212E12,92.61345099768452,-0.23916583123775112,
1.6867349399411646E12,92.31534826541125,-0.7139322732676862,
1.6867349399431174E12,91.9044953868185,-0.5742571421705029,
1.68673493994507E12,91.37591596952073,-0.2831578664870037,
1.6867349399470227E12,91.33196985705334,0.1398330918760315,
1.6867349399489756E12,91.60547911391407,0.6432762223033885,
1.6867349399509282E12,91.98618515167854,0.6261526535935469,
1.6867349399528809E12,92.50524451397791,0.3226005914262196,
1.6867349399548337E12,92.6747063010581,-0.08574268527435674,
1.6867349399567864E12,92.41059689648115,-0.6173266556731257,
1.6867349399587393E12,92.04462771152986,-0.6679130181706159,
1.686734939960692E12,91.53407870142604,-0.3954363724411262,
1.6867349399626445E12,91.30792931412807,-0.016806392145464248,
1.6867349399645974E12,91.37832002381326,0.49946213934588,
1.68673493996655E12,91.66404187648001,0.678289376370816,
1.686734939968503E12,92.07265898458071,0.5624650094900316,
1.6867349399704556E12,92.59251168479662,0.25475028643332415,
1.6867349399724082E12,92.64862231198418,-0.1884803337172076,
1.686734939974361E12,92.36169843217117,-0.6895323134265542,
1.6867349399763137E12,91.97115981235025,-0.6240050339056598,
1.6867349399782666E12,91.44118604356282,-0.3359347460488162,
1.6867349399802192E12,91.31151135502394,0.070619018191096,
1.6867349399821719E12,91.57485146222729,0.5933713585106587,
1.6867349399841248E12,91.93178140303867,0.6570119456741526,
1.6867349399860774E12,92.437666547815,0.37093846209222064,
1.6867349399880303E12,92.69050093775999,-0.016605040894210207,
1.686734939989983E12,92.45225915737063,-0.5456522393671694,
1.6867349399919355E12,92.10263754160852,-0.6842907002096983,
1.6867349399938884E12,91.6083639790651,-0.41893772680747515,
1.686734939995841E12,91.27186849974018,-0.06081112869732791,
1.686734939997794E12,91.48191072327822,0.4414579517867545,
1.6867349399997466E12,91.79859679523271,0.7016843283500561,
1.6867349400016992E12,92.00349434258473,0.45978442635343636,
1.686734940003652E12,92.52728969184038,0.11243228312211116,
1.6867349400056047E12,92.67011455735937,-0.10479052375821737,
1.6867349400075576E12,92.3983602601322,-0.6302499891874647,
1.6867349400095103E12,92.0237364797278,-0.6485221834806744,
1.686734940011463E12,91.51619253748964,-0.36859604362691306,
1.6867349400134158E12,91.2854994875788,0.015876623415217974,
1.6867349400153684E12,91.52931867392684,0.5441968797009931,
1.6867349400173213E12,91.86949235631931,0.6864574792986204,
1.686734940019274E12,92.3605925671966,0.4230963955586384,
1.6867349400212266E12,92.69547733014552,0.05231073543270744,
1.6867349400231794E12,92.49151736396759,-0.4597016156633287,
1.686734940025132E12,92.15817119576587,-0.6859881946280803,
1.686734940027085E12,91.68709675714534,-0.4331604386333113,
1.6867349400290376E12,91.27314264851522,-0.09934099422120386,
1.6867349400309902E12,91.44798951721067,0.3915517152943457,
1.686734940032943E12,91.74525083048155,0.730213266714631,
1.6867349400348958E12,92.18841419876586,0.5250387697953353,
1.6867349400368486E12,92.66953758432916,0.191449967038243,
1.6867349400388013E12,92.59073268462015,-0.28107974565731003,
1.686734940040754E12,92.43790695324425,-0.7015608551436922,
1.6867349400427068E12,92.08503986418722,-0.5270817147016221,
1.6867349400446594E12,91.59052589621456,-0.3917039550920853,
1.6867349400466123E12,91.27624387855258,-0.02569958243166669,
1.686734940048565E12,91.50164800901986,0.4760854055952369,
1.6867349400505176E12,91.82371916258961,0.7132191524052099,
1.6867349400524705E12,92.29020185751142,0.4611668503913406,
1.686734940054423E12,92.69634278969083,0.11231858418469476,
1.6867349400563757E12,92.53147274630938,-0.38960345846426114,
1.6867349400583286E12,92.21582041770066,-0.698878124388462,
1.6867349400602812E12,91.76450730536469,-0.4804274016786314,
1.6867349400622341E12,91.29278377208516,-0.1578474252806163,
1.6867349400641868E12,91.40788989161133,0.304658084129585,
1.6867349400661394E12,91.69902086643627,0.715165173260164,
1.6867349400680923E12,92.11932167839865,0.5474699949369519,
1.686734940070045E12,92.62794744506846,0.23593934359202043,
1.6867349400719978E12,92.6290292695001,-0.22290402243344193,
1.6867349400739504E12,92.33265745631743,-0.696541253497479,
1.686734940075903E12,91.92887249734471,-0.5868288254411241,
1.686734940077856E12,91.66425824136634,-0.2940124432615403,
1.6867349400798086E12,91.27345517557325,0.12304830917959453,
1.6867349400817615E12,91.4592404912997,0.39704247028627343,
1.686734940083714E12,91.76633438662701,0.6975871251011052,
1.6867349400856667E12,92.21841679633658,0.48625090946527816,
1.6867349400876196E12,92.67691803100722,0.1414544919213203,
1.6867349400895723E12,92.57647664266547,-0.33140558862297814,
1.6867349400915251E12,92.2698154771108,-0.7280608391305715,
1.6867349400934778E12,91.83590771785272,-0.5348363643798435,
1.6867349400954304E12,91.32769064041264,-0.23642131478117606,
1.6867349400973833E12,91.36930482021629,0.2214287082185258,
1.686734940099336E12,91.65295918619147,0.6727359506837262,
1.6867349401012888E12,92.05222452309424,0.5799322851736187,
1.6867349401032415E12,92.56758164178312,0.270834365608535,
1.686734940105194E12,92.65768559666701,-0.15854247993755471,
1.686734940107147E12,92.37446396046448,-0.6747082705710714,
1.6867349401090996E12,91.98842092217059,-0.6256908255133367,
1.6867349401110525E12,91.46587568114707,-0.3505814578928622,
1.6867349401130051E12,91.301197962109,0.05389737811811757,
1.6867349401149578E12,91.56138875818914,0.572808463293237,
1.6867349401169106E12,91.71462317879477,0.6662531512642736,
1.6867349401188633E12,92.14158322114744,0.3792279607958073,
1.6867349401208162E12,92.63982347327354,0.2082309880976222,
1.6867349401227688E12,92.61092674067737,-0.2564484889080069,
1.6867349401247214E12,92.3133048192626,-0.7029204124129695,
1.6867349401266743E12,91.90341356238686,-0.5715602920158463,
1.686734940128627E12,91.37889699684347,-0.2719269547482174,
1.6867349401305798E12,91.33699433052472,0.15262206660025693,
1.6867349401325325E12,91.61442219588227,0.6578844333928614,
1.686734940134485E12,91.99306074695517,0.6302481704818291,
1.686734940136438E12,92.51031706853514,0.338152137789894,
1.6867349401383906E12,92.67848066629736,-0.07621065731399376,
1.6867349401403435E12,92.41367408597559,-0.5991832361334737,
1.6867349401422961E12,92.04746449559504,-0.6463449979691666,
1.6867349401442488E12,91.53951186412715,-0.36767900537452813,
1.6867349401462017E12,91.28973062313365,0.010069464844847229,
1.6867349401481543E12,91.53321324188073,0.5337937591648255,
1.6867349401501072E12,91.86155897715398,0.7005167732326538,
1.6867349401520598E12,92.34948583636513,0.44054863465219707,
1.6867349401540125E12,92.70151150641976,0.07202070525363077,
1.6867349401559653E12,92.65222839342297,-0.4349317142845234,
1.686734940157918E12,92.36532855415288,-0.6634957470713434,
1.6867349401598706E12,91.9733955828423,-0.5900629880456567,
1.6867349401618235E12,91.44445555740066,-0.3066443221644352,
1.6867349401637761E12,91.31932453147465,0.10446102305596673,
1.686734940165729E12,91.58218382781949,0.6220939544095693,
1.6867349401676816E12,91.93682991705298,0.6801495815849579,
1.6867349401696343E12,92.44276314291515,0.3910678236699306,
1.6867349401715872E12,92.69417914082756,0.0019515045561111558,
1.6867349401735398E12,92.45807696875855,-0.5301319528691137,
1.6867349401754927E12,92.10828706919595,-0.6588772505316742,
1.6867349401774453E12,91.61562422302853,-0.397604083981952,
1.686734940179398E12,91.28316755491505,-0.040201790646790365,
1.6867349401813508E12,91.49708030586406,0.4636621895424747,
1.6867349401833035E12,91.8106651477812,0.7165516759949192,
1.6867349401852563E12,92.27709976161715,0.47634620003040323,
1.686734940187209E12,92.6963187491479,0.12640604162094435,
1.6867349401891616E12,92.55322943765674,-0.369752891693111,
1.6867349401911145E12,92.2381300415353,-0.7068947074162206,
1.6867349401930671E12,92.0324872373526,-0.4986296259867325,
1.68673494019502E12,91.52573663303097,-0.18287285479737386,
1.6867349401969727E12,91.303770300202,0.020392952263456027,
1.6867349401989253E12,91.55162829776148,0.5430185586498207,
1.6867349402008782E12,91.88846034468735,0.6844001544373159,
1.6867349402028308E12,92.37386294689135,0.4112746490801223,
1.6867349402047837E12,92.70990165590068,0.03544500770975912,
1.6867349402067363E12,92.50291258131416,-0.4736377920977282,
1.686734940208689E12,92.17293208912199,-0.7052455180120446,
1.6867349402106418E12,91.7019057315873,-0.4631047578652225,
1.6867349402125945E12,91.29271165045638,-0.12349951935644897,
1.6867349402145474E12,91.46577951897537,0.3658039565622981,
1.6867349402165E12,91.76705560291477,0.700520559381717,
1.6867349402184526E12,92.20704561953293,0.4946593946599936,
1.6867349402204055E12,92.68376958574092,0.1615979300204992,
1.6867349402223582E12,92.60299336151203,-0.31147481820886475,
1.686734940224311E12,92.29803907450506,-0.724642356093003,
1.6867349402262637E12,91.87425238381851,-0.5518891628164729,
1.6867349402282163E12,91.3571403054961,-0.2532975152432314,
1.6867349402301692E12,91.37944992933075,0.18767233183884346,
1.6867349402321218E12,91.52304409222334,0.6707025711499822,
1.6867349402340747E12,91.84295159692982,0.5895934754053948,
1.6867349402360273E12,92.31246340026021,0.4392740041148904,
1.68673494023798E12,92.70970933155728,0.08397691155335564,
1.6867349402399329E12,92.54649808563767,-0.40742043119243787,
1.6867349402418855E12,92.22848978382227,-0.724275867639842,
1.6867349402438384E12,91.77496494153718,-0.49514762952268165,
1.686734940245791E12,91.31076609819326,-0.17581295659187013,
1.6867349402477437E12,91.42969466404455,0.29498318141242896,
1.6867349402496965E12,91.72125836864214,0.6982036733564948,
1.6867349402516492E12,92.14276120775078,0.5382020422119858,
1.6867349402536018E12,92.64754048755255,0.21942583635768245,
1.6867349402555547E12,92.64201116267974,-0.22651330480580037,
1.6867349402575073E12,92.34568743058293,-0.7015810408973469,
1.6867349402594602E12,91.94529218816267,-0.580658517399077,
1.6867349402614128E12,91.4142365949436,-0.29310636386318617,
1.6867349402633655E12,91.3506733994492,0.1333762564596131,
1.6867349402653184E12,91.62526448074156,0.6381780863773088,
1.686734940267271E12,91.99481570658871,0.6457171074185399,
1.6867349402692239E12,92.50976413604786,0.34527149512515504,
1.6867349402711765E12,92.69737653303662,-0.05187997087449193,
1.6867349402731292E12,92.59558887429105,-0.32081602907070556,
1.686734940275082E12,92.28719678964576,-0.7049138451386986,
1.6867349402770347E12,91.85727976051328,-0.5236897880849579,
1.6867349402789875E12,91.34665862878067,-0.20992687815851047,
1.6867349402809402E12,91.3956772958053,0.23737029803040863,
1.6867349402828928E12,91.67959610775266,0.7023962971492288,
1.6867349402848457E12,92.07871720139788,0.5969678200795788,
1.6867349402867983E12,92.60359437508517,0.29658330213863665,
1.6867349402887512E12,92.68052411244601,-0.1424830292990333,
1.6867349402907039E12,92.39622065181184,-0.6447680651946676,
1.6867349402926565E12,92.01585118164832,-0.6084446592742137,
1.6867349402946094E12,91.48854591312559,-0.31928965575589263,
1.686734940296562E12,91.33588846555016,0.07459890951283436,
1.686734940298515E12,91.59812270777894,0.5949511261724638,
1.6867349403004675E12,91.94668653965233,0.6796438591619516,
1.6867349403024202E12,92.44596053512421,0.40085344846634635,
1.686734940304373E12,92.72146515704773,0.009422187678428359,
1.6867349403063257E12,92.49120483690956,-0.5092961680202351,
1.6867349403082786E12,92.34277852488897,-0.6792765808970026,
1.6867349403102312E12,91.93185352466745,-0.41588481545727235,
1.6867349403121838E12,91.40399532365744,-0.26780334138209294,
1.6867349403141367E12,91.36699692809546,0.16172957353097864,
1.6867349403160894E12,91.64122740124394,0.6550305881093473,
1.6867349403180422E12,92.02020251991779,0.6280950074984246,
1.6867349403199949E12,92.53906955787376,0.32581035909784334,
1.6867349403219475E12,92.70042968198813,-0.08269698662086532,
1.6867349403239004E12,92.43598370981023,-0.6115403076347458,
1.686734940325853E12,92.07025493028819,-0.6525842994480939,
1.686734940327806E12,91.55980208235607,-0.37909409275465666,
1.6867349403297585E12,91.31497319320518,-5.629403292293206E-5,
1.6867349403317112E12,91.55761439294987,0.5136960081567232,
1.686734940333664E12,91.88545527682169,0.6818757622288735,
1.6867349403356167E12,92.3715310142276,0.41403311317033425,
1.6867349403375696E12,92.71937362981323,0.047542225488319816,
1.6867349403395222E12,92.52589534035071,-0.46295583889675423,
1.6867349403414749E12,92.19942476742563,-0.713223623499082,
1.6867349403434277E12,91.72729254491638,-0.4717861695112584,
1.6867349403453804E12,91.30485212463364,-0.1440382991260436,
1.6867349403473333E12,91.3402157632767,0.342338520681394,
1.686734940349286E12,91.60490214088387,0.6937472363710943,
1.6867349403512385E12,91.96327451427076,0.6433882395456757,
1.6867349403531914E12,92.4648804424064,0.35594129704126787,
1.686734940355144E12,92.71540694023057,-0.036629695391789584,
1.6867349403570967E12,92.4721166458269,-0.5659637395903943,
1.6867349403590496E12,92.12316816526669,-0.6913460844956094,
1.6867349403610022E12,91.63598656288623,-0.42865259474389283,
1.686734940362955E12,91.30593394906528,-0.07393738951541014,
1.6867349403649077E12,91.52025538924401,0.4321231836520505,
1.6867349403668604E12,91.83710974499898,0.683848247321497,
1.6867349403688132E12,92.30260677766086,0.44822021735008233,
1.6867349403707659E12,92.71550310240227,0.09888800382908741,
1.6867349403727188E12,92.57397642620124,-0.3929115511198188,
1.6867349403746714E12,92.25827601650667,-0.7248618057144113,
1.686734940376624E12,91.81004009366514,-0.5096653447328946,
1.686734940378577E12,91.32925327570278,-0.1956329860736075,
1.6867349403805295E12,91.42861283961291,0.2725254271864219,
1.6867349403824824E12,91.71871007109206,0.6920202328997463,
1.686734940384435E12,91.91271725249894,0.5511030250844273,
1.6867349403863877E12,92.40081239551057,0.23599395266007198,
1.6867349403883406E12,92.7227633463657,0.032970722487040784,
1.6867349403902932E12,92.51815428552878,-0.4741873005889868,
1.686734940392246E12,92.18689964456156,-0.6930947428751957,
1.6867349403941987E12,91.71346923273435,-0.4461496535638197,
1.6867349403961514E12,91.3075687059842,-0.10583457865604244,
1.6867349403981042E12,91.48895460235532,0.3780496069924105,
1.686734940400057E12,91.78681692919933,0.7179745016832855,
1.6867349404020098E12,92.23303344643514,0.5087714698559884,
1.6867349404039624E12,92.70148746587684,0.1830569382817865,
1.686734940405915E12,92.6204708362187,-0.290955429286321,
1.686734940407868E12,92.31669453581506,-0.695527934605363,
1.6867349404098206E12,91.89290784512852,-0.526278118333817,
1.6867349404117734E12,91.375507280291,-0.22004971087938052,
1.686734940413726E12,91.39897085018606,0.2152476320281827,
1.6867349404156787E12,91.68036540512627,0.6972303751357892,
1.6867349404176316E12,92.07638526873413,0.6108625126401745,
1.6867349404195842E12,92.59368967139996,0.31145193058796017,
1.686734940421537E12,92.69934785755649,-0.11882891915183007,
1.6867349404234897E12,92.56753356069727,-0.6301304850780534,
1.6867349404254424E12,92.25168890774515,-0.6151988840557622,
1.6867349404273953E12,91.7948705110793,-0.4655425924490513,
1.686734940429348E12,91.3304072217632,-0.15385733614308011,
1.6867349404313008E12,91.4505858958466,0.3219562819730539,
1.6867349404332534E12,91.74505850613815,0.710194973297291,
1.686734940435206E12,92.17052803482946,0.5535166304187308,
1.686734940437159E12,92.67362447662646,0.22579444359853207,
1.6867349404391116E12,92.66458523248656,-0.2209715210506045,
1.6867349404410645E12,92.37383890634842,-0.6954951057359314,
1.686734940443017E12,91.9694048527167,-0.5695834375064489,
1.6867349404449697E12,91.43986381370193,-0.288845718557354,
1.6867349404469226E12,91.37937780770197,0.1398637816893277,
1.6867349404488752E12,91.65231009153248,0.6334364197259088,
1.6867349404508281E12,92.02457789873019,0.6353357921844195,
1.6867349404527808E12,92.53959844981812,0.32755394952305755,
1.6867349404547334E12,92.7298072254428,-0.06519254073455599,
1.6867349404566863E12,92.46942410501927,-0.6078235736016389,
