"sep=,"
Shimmer__TimestampSync_Unix_CAL,Shimmer__EMG_CH1_24BIT_CAL,Shimmer__EMG_CH1_BandPass_Filter_CAL,
ms,mV,mV,
1.6861877867177139E12,-70.3019279601488,0.11034290839076939,
1.6861877867196672E12,-70.2405524540606,0.2410243342966491,
1.6861877867216204E12,-70.08722187128328,0.2082962717747541,
1.6861877867235737E12,-69.9201400979527,0.08824108712298374,
1.6861877867255269E12,-69.82912260243765,-0.004405209075473488,
1.6861877867274802E12,-69.95759526383026,-0.18253777043140115,
1.6861877867294333E12,-70.03829936643037,-0.26241235944181945,
1.6861877867313867E12,-70.22396447944217,-0.1737279868269486,
1.6861877867333398E12,-70.33469522015594,0.05979149547138677,
1.6861877867352932E12,-70.27529103858761,0.1468805981780892,
1.6861877867372463E12,-70.13917348454477,0.2461330576902693,
1.6861877867391997E12,-69.96697107557111,0.19091052909118142,
1.6861877867411528E12,-69.83715214377469,0.05480448842667195,
1.686187786743106E12,-69.86126480832873,-0.1236045467602471,
1.6861877867450593E12,-69.98452067190655,-0.25408814806195723,
1.6861877867470125E12,-70.16496898710358,-0.21064168363841115,
1.6861877867489658E12,-70.31868421856771,-0.08041270710749529,
1.686187786750919E12,-70.31226539360667,0.09540074382411484,
1.6861877867528723E12,-70.2510100902331,0.23862012034594776,
1.6861877867548254E12,-70.10647834616641,0.22443695679165462,
1.6861877867567788E12,-69.86576038985575,0.11027300852931339,
1.686187786758732E12,-69.83022846741221,-0.06346597678455469,
1.6861877867606853E12,-69.88689202708706,-0.156043108913474,
1.6861877867626384E12,-70.01555701282307,-0.23314354622636319,
1.6861877867645918E12,-70.19723139570928,-0.18044953627146199,
1.686187786766545E12,-70.33101701708837,-0.04069941969572293,
1.6861877867684983E12,-70.29868248685389,0.12979825582194376,
1.6861877867704514E12,-70.16590656827766,0.2542415141716056,
1.6861877867724048E12,-69.99288678084454,0.1533998815918914,
1.686187786774358E12,-69.84837907732079,0.0807862964287474,
1.686187786776311E12,-69.85758660526116,-0.10121835776233194,
1.6861877867782644E12,-69.96850967031833,-0.24396309959662965,
1.6861877867802175E12,-70.14049571440566,-0.21988905794010413,
1.686187786782171E12,-70.30779385262257,-0.09231634151979218,
1.686187786784124E12,-70.3203910971154,0.07669554263351688,
1.6861877867860774E12,-70.21093450517668,0.2276215037893139,
1.6861877867880305E12,-70.04361232641685,0.24157642115782157,
1.686187786789984E12,-69.87842975597736,0.13010684584799778,
1.686187786791937E12,-69.83400283265148,-0.04321313983568401,
1.6861877867938904E12,-69.87766045860376,-0.20858637376681008,
1.6861877867958435E12,-70.0893374390607,-0.24407080569325765,
1.6861877867977969E12,-70.18110019140643,-0.1400017232842386,
1.68618778679975E12,-70.32560789493019,-0.06108989574746272,
1.6861877868017034E12,-70.30805829859474,0.11390469891249595,
1.6861877868036565E12,-70.18129251574983,0.2579208478088855,
1.6861877868056096E12,-70.0137780126466,0.22469889876714771,
1.686187786807563E12,-69.85708175385973,0.10620238450010167,
1.686187786809516E12,-69.8434507660211,-0.07602714070546994,
1.6861877868114695E12,-69.94889258729131,-0.2235051741567074,
1.6861877868134226E12,-70.12126328006545,-0.2272628907881458,
1.686187786815376E12,-70.29137416180461,-0.1079309795852484,
1.686187786817329E12,-70.33108913871715,0.05502553008101604,
1.6861877868192825E12,-70.22047860071801,0.2175602588843286,
1.6861877868212356E12,-70.06532093667836,0.24251201242228104,
1.686187786823189E12,-69.89891229854969,0.1360529217207019,
1.686187786825142E12,-69.83349798125005,-0.02290314757455365,
1.6861877868270955E12,-69.9156685569686,-0.19497677656569792,
1.6861877868290486E12,-69.9800010498366,-0.2619669230398118,
1.686187786831002E12,-70.16088209480628,-0.15919214454849048,
1.686187786832955E12,-70.31459732627042,-0.006800520465944994,
1.6861877868349084E12,-70.32055938091588,0.16333594164653867,
1.6861877868368616E12,-70.11825821219979,0.22408945125174107,
1.6861877868388147E12,-70.03164013604007,0.2217744639237533,
1.686187786840768E12,-69.87162628232952,0.11093908281861171,
1.6861877868427212E12,-69.83852245472143,-0.1533770583961566,
1.6861877868446746E12,-69.94168042441373,-0.22438966944588243,
1.6861877868466277E12,-70.1002758860917,-0.247526196926441,
1.686187786848581E12,-70.27000211914405,-0.1352764277388402,
1.6861877868505342E12,-70.3376041258499,0.029756491113931565,
1.6861877868524875E12,-70.23785991325298,0.18961179597266753,
1.6861877868544407E12,-70.08594772250824,0.24270208305733884,
1.686187786856394E12,-69.91638977325636,0.14909742184619745,
1.6861877868583472E12,-69.83181514324528,-0.006689355623537751,
1.6861877868603005E12,-69.91199035390103,-0.18373071164887794,
1.6861877868622537E12,-70.04440566433338,-0.26006889773733805,
1.686187786864207E12,-70.2237961956417,-0.17152787074240203,
1.6861877868661602E12,-70.33755604476404,-0.025720670354042886,
1.6861877868681133E12,-70.32918993582605,0.1442159584618215,
1.6861877868700667E12,-70.21547816778956,0.24373139932443114,
1.6861877868720198E12,-70.05493542213465,0.18073457141750224,
1.6861877868739731E12,-69.89251751413157,0.12340192128580971,
1.6861877868759263E12,-69.87196284993047,-0.03868012037916451,
1.6861877868778796E12,-69.92627043639864,-0.21457675009666138,
1.6861877868798328E12,-70.0782066676863,-0.24733054445426583,
1.6861877868817861E12,-70.25673173944931,-0.08079818160254587,
1.6861877868837393E12,-70.33849362593813,0.011274819487938221,
1.6861877868856926E12,-70.25848669908285,0.17193132095910899,
1.6861877868876458E12,-70.10414641350266,0.2532991867972471,
1.686187786889599E12,-69.9392763701212,0.16303157492004303,
1.6861877868915522E12,-69.8356375895704,0.021753315293148553,
1.6861877868935056E12,-69.89648420371424,-0.1668055441121553,
1.6861877868954587E12,-70.02793789242958,-0.25600101341653864,
1.686187786897412E12,-70.21158359983566,-0.18767450246154035,
1.6861877868993652E12,-70.33887827462493,-0.04100966146536936,
1.6861877869013184E12,-70.29543701355898,0.1289280387004267,
1.6861877869032717E12,-70.23372493986983,0.2520627794494782,
1.6861877869052249E12,-69.99127606446855,0.20284465591548542,
1.6861877869071782E12,-69.9096824617802,0.07724225415838917,
1.6861877869091313E12,-69.83912346829456,-0.10799068509636203,
1.6861877869110847E12,-69.91768796257432,-0.18535293858563467,
1.6861877869130378E12,-70.06318132835801,-0.22146776595625256,
1.6861877869149912E12,-70.31988624571397,-0.15398963731320459,
1.6861877869169443E12,-70.3451288157855,-0.005919861809625617,
1.6861877869188977E12,-70.27343991678237,0.16700373145965539,
1.6861877869208508E12,-70.13013424040487,0.2529089849118216,
1.6861877869228042E12,-69.96252357512994,0.1299323846837414,
1.6861877869247573E12,-69.84119095498613,0.04433434122615513,
1.6861877869267107E12,-69.88660354057195,-0.13626071139550727,
1.6861877869286638E12,-70.0094026338342,-0.25159447588923733,
1.686187786930617E12,-70.19244732766715,-0.18762081927382548,
1.6861877869325703E12,-70.33306046323702,-0.055741324553290984,
1.6861877869345234E12,-70.31139993406136,0.12046113049925881,
1.6861877869364768E12,-70.18025877240404,0.24648121122218794,
1.68618778693843E12,-70.01300871527299,0.2257365508255415,
1.6861877869403833E12,-69.86001470009661,0.09919411525728197,
1.6861877869423364E12,-69.8336422245076,-0.07857367409611937,
1.6861877869442898E12,-69.90723032640183,-0.2349929508288014,
1.686187786946243E12,-70.12907645651616,-0.226628890745179,
1.6861877869481963E12,-70.224661655187,-0.16742994907913636,
1.6861877869501494E12,-70.34777327550728,-0.021728485892471297,
1.6861877869521028E12,-70.2898355670574,0.2176386455146171,
1.686187786954056E12,-70.15321316161312,0.2535324669196617,
1.6861877869560093E12,-69.98043377960926,0.19627270900170854,
1.6861877869579624E12,-69.84556633379853,0.06713807947397443,
1.6861877869599155E12,-69.86852505229216,-0.1143386715736657,
1.686187786961869E12,-69.99209344292801,-0.2494400444074054,
1.686187786963822E12,-70.16987325786033,-0.2160859879781062,
1.6861877869657754E12,-70.32137675937534,-0.0854767791173577,
1.6861877869677285E12,-70.32188161077677,0.08939984553989196,
1.686187786969682E12,-70.20136636909243,0.23089550938946435,
1.686187786971635E12,-70.03553470399396,0.22438400064919672,
1.6861877869735884E12,-69.87984814800996,0.10962114205866687,
1.6861877869755415E12,-69.84984555043923,-0.05884137828161539,
1.6861877869774949E12,-69.95098411452581,-0.2307764874493385,
1.686187786979448E12,-70.02334614873085,-0.23904776714489276,
1.6861877869814014E12,-70.20881893739926,-0.13498131103428224,
1.6861877869833545E12,-70.34128232891746,0.03743041678573787,
1.6861877869853079E12,-70.24158619740639,0.19652764781336474,
1.686187786987261E12,-70.17232539323871,0.2467553921625686,
1.6861877869892144E12,-70.00646968759732,0.1963892462402966,
1.6861877869911675E12,-69.86112056507118,-0.008840313169162312,
1.6861877869931206E12,-69.86544786279772,-0.10784866123776986,
1.686187786995074E12,-69.97759699554408,-0.24533887006805902,
1.686187786997027E12,-70.15037637754794,-0.23547224367354894,
1.6861877869989805E12,-70.31488581278552,-0.10120707416038315,
1.6861877870009336E12,-70.33358935518137,0.05829910646727739,
1.686187787002887E12,-70.22355579021244,0.22287744280254174,
1.68618778700484E12,-70.06205142284053,0.22829723835628463,
1.6861877870067935E12,-69.89508985222457,0.1310112461886083,
1.6861877870087466E12,-69.84760977994718,-0.04964207126386731,
1.6861877870107E12,-69.93836282949005,-0.21144085991165398,
1.686187787012653E12,-70.09347241244384,-0.2593717831977893,
1.6861877870146064E12,-70.27440153849938,-0.140418074962194,
1.6861877870165596E12,-70.3332287470375,0.0067318400137751705,
1.686187787018513E12,-70.32207393512017,0.18138288783450807,
1.686187787020466E12,-70.19506774684601,0.23913950874977002,
1.6861877870224192E12,-70.025870405738,0.16497382259792165,
1.6861877870243726E12,-69.83972448186769,0.09347338055976975,
1.6861877870263257E12,-69.85333142916339,-0.07977998856578651,
1.686187787028279E12,-69.96415833204885,-0.24003859865383306,
1.6861877870302322E12,-70.13087949723555,-0.2388906457619717,
1.6861877870321855E12,-70.29719197319253,-0.04238136752245631,
1.6861877870341387E12,-70.33762816639282,0.05068980746378845,
1.686187787036092E12,-70.2352154535312,0.20577978750625883,
1.6861877870380452E12,-70.07883172180236,0.2445443364217479,
1.6861877870399985E12,-69.9138655162492,0.13743476339535043,
1.6861877870419517E12,-69.84539804999805,-0.016421043962668778,
1.686187787043905E12,-69.92990055838035,-0.18903586772578682,
1.6861877870458582E12,-70.07707676216882,-0.2529384510643061,
1.6861877870478115E12,-70.25403919864168,-0.1549442364894043,
1.6861877870497646E12,-70.3498888432847,-4.7990787736234126E-4,
1.686187787051718E12,-70.27702195767823,0.1685256577230239,
1.6861877870536711E12,-70.21442038390084,0.2544129460431029,
1.6861877870556243E12,-69.96269185893041,0.17492481650140504,
1.6861877870575776E12,-69.88936820300836,0.04250855050340839,
1.6861877870595308E12,-69.85085525324209,-0.13493090808572497,
1.6861877870614841E12,-69.94689722222851,-0.25005893230024584,
1.6861877870634373E12,-70.10631006236594,-0.23847051233861727,
1.6861877870653906E12,-70.34012838285705,-0.12752602418924833,
1.6861877870673438E12,-70.34830216745164,0.03750032518417062,
1.686187787069297E12,-70.25411132027045,0.1957427132149957,
1.6861877870712502E12,-70.10669471105274,0.2220152844221193,
1.6861877870732036E12,-69.93427593719275,0.16213845508926886,
1.6861877870751567E12,-69.84503744185417,0.0171113956633992,
1.68618778707711E12,-69.91552431371105,-0.1683384606469467,
1.6861877870790632E12,-70.05435844910444,-0.2420579770000175,
1.6861877870810166E12,-70.24192276500735,-0.17027032108967394,
1.6861877870829697E12,-70.35034561360028,-0.00682740887048898,
1.6861877870849229E12,-70.2928887160089,0.148611332066423,
1.6861877870868762E12,-70.15479983744619,0.2623261098096022,
1.6861877870888293E12,-69.98240510412913,0.1909379838235499,
1.6861877870907827E12,-69.90165292044317,0.07043459404400183,
1.6861877870927358E12,-69.84650391497262,-0.12474354105224958,
1.6861877870946892E12,-70.00223855204247,-0.2403233719332597,
1.6861877870966423E12,-70.08539479002096,-0.20927139720745933,
1.6861877870985957E12,-70.26867988928316,-0.13519923683068708,
1.6861877871005488E12,-70.35142743803192,0.09414910161670588,
1.6861877871025022E12,-70.26651624041989,0.18862068908306404,
1.6861877871044553E12,-70.12049398269184,0.2455222452820321,
1.6861877871064087E12,-69.95254674981595,0.18022004970735042,
1.6861877871083618E12,-69.84369117145036,0.020672988255215505,
1.6861877871103152E12,-69.89924886615064,-0.22252298214090277,
1.6861877871122683E12,-70.03019770346455,-0.26205142545162335,
1.6861877871142217E12,-70.2144684649867,-0.17674668994568038,
1.6861877871161748E12,-70.34433547786897,-0.04779445604351977,
1.686187787118128E12,-70.30567828484514,0.13339877227176516,
1.6861877871200813E12,-70.176412285536,0.24047291204895851,
1.6861877871220344E12,-69.99884883549001,0.20847102173977008,
1.6861877871239878E12,-69.86112056507118,0.07166724111496439,
1.686187787125941E12,-69.86883757935018,-0.09827330634238204,
1.6861877871278943E12,-69.98654007751227,-0.2524841125799549,
1.6861877871298474E12,-70.06825388291524,-0.21815461245150916,
1.6861877871318008E12,-70.24516823830226,-0.10005876475068802,
1.686187787133754E12,-70.33959949091269,0.07930372707960648,
1.6861877871357073E12,-70.28509958010112,0.21994066344382365,
1.6861877871376604E12,-70.14640968796527,0.2577563467012152,
1.6861877871396138E12,-69.96757208914424,0.17262446666785566,
1.686187787141567E12,-69.84405177959424,-0.03855013613093397,
1.6861877871435203E12,-69.8891277975791,-0.1447526336840255,
1.6861877871454734E12,-70.01161436378332,-0.2580556586761032,
1.6861877871474265E12,-70.19528411173233,-0.20970868874324353,
1.68618778714938E12,-70.33546451752954,-0.06422048659610727,
1.686187787151333E12,-70.3219056513197,0.10008063130580637,
1.6861877871532864E12,-70.19004327337463,0.24280253038603256,
1.6861877871552395E12,-70.02036512140812,0.21254911770740437,
1.6861877871571929E12,-69.86888566043604,0.09576720275341678,
1.686187787159146E12,-69.85727407820313,-0.08806777060330169,
1.6861877871610994E12,-69.96677875122771,-0.23389733942740146,
1.6861877871630525E12,-70.1344374975885,-0.2391773537538681,
1.6861877871650059E12,-70.30464454149936,-0.11413378798501563,
1.686187787166959E12,-70.34957631622667,0.04822684483396663,
1.6861877871689124E12,-70.29851420305341,0.2072741199099086,
1.6861877871708655E12,-70.16129078403601,0.23511739916053234,
1.6861877871728188E12,-69.99057888872372,0.1361611075868111,
1.686187787174772E12,-69.84292187407675,0.06294308799857411,
1.6861877871767253E12,-69.87451114748055,-0.12152551410915634,
1.6861877871786785E12,-69.99651690282626,-0.25356534223725335,
1.6861877871806316E12,-70.16859910908529,-0.15403164634304933,
1.686187787182585E12,-70.32786770596516,-0.08310664695190462,
1.686187787184538E12,-70.33137762523225,0.08144234450806931,
1.6861877871864915E12,-70.21345876218383,0.2296429949908991,
1.6861877871884446E12,-70.04382869130318,0.22289805943234245,
1.686187787190398E12,-69.88367059433507,0.11472128361499193,
1.686187787192351E12,-69.8500138342397,-0.06154166477203487,
1.6861877871943044E12,-69.95033501986683,-0.2210364139159747,
1.6861877871962576E12,-70.11508486053366,-0.24423276434793567,
1.686187787198211E12,-70.29238386460747,-0.12823141736018148,
1.686187787200164E12,-70.35029753251443,0.027838573660461125,
1.6861877872021174E12,-70.25257272552324,0.20162231945762762,
1.6861877872040706E12,-70.0936166557014,0.24280468274959324,
1.686187787206024E12,-70.0075034309431,0.15962178259590687,
1.686187787207977E12,-69.86354865990663,-0.00256001523744078,
1.6861877872099302E12,-69.86535170062602,-0.17528319078489626,
1.6861877872118835E12,-69.97670749545584,-0.24185857437362895,
1.6861877872138367E12,-70.24497591395885,-0.22197847367545043,
1.68618778721579E12,-70.31584743450253,-0.1032895711786069,
1.6861877872177432E12,-70.34032070720045,0.07503294119626501,
1.6861877872196965E12,-70.22742631762341,0.252405851298956,
1.6861877872216497E12,-70.06265243641366,0.2482030557743032,
1.686187787223603E12,-69.90078746089786,0.12826614285366578,
1.6861877872255562E12,-69.84989363152508,-0.028892654881805504,
1.6861877872275095E12,-69.94115153246938,-0.2045297673293776,
1.6861877872294626E12,-70.09450615578963,-0.23536429854630242,
1.686187787231416E12,-70.27209364637855,-0.1423673098933204,
1.6861877872333691E12,-70.35073026228709,0.023541133768137885,
1.6861877872353225E12,-70.26190045617824,0.17912272386847936,
1.6861877872372756E12,-70.11477233347563,0.25692591080804306,
1.686187787239229E12,-69.94533458693837,0.16318818551935818,
1.6861877872411821E12,-69.87309275544796,0.025053094748584286,
1.6861877872431353E12,-69.90345596116256,-0.16088287899128303,
1.6861877872450886E12,-69.96156195341293,-0.24808352923299812,
1.6861877872470417E12,-70.12621563190805,-0.18382456678793804,
1.686187787248995E12,-70.30014895997233,-0.11305454201136364,
1.6861877872509482E12,-70.34678761324734,0.13052507004018193,
1.6861877872529016E12,-70.17100316337782,0.21145872677117805,
1.6861877872548547E12,-70.08690934422525,0.24236278295061928,
1.686187787256808E12,-69.920043935781,0.1533066035927579,
1.6861877872587612E12,-69.8456384554273,-0.01310733608325739,
1.6861877872607146E12,-69.92663104454252,-0.240616399628569,
1.6861877872626677E12,-70.07133107240968,-0.2551300357477144,
1.686187787264621E12,-70.25430364461386,-0.15534434540861958,
1.6861877872665742E12,-70.34818196473701,-0.013568266456191358,
1.6861877872685276E12,-70.28024339043021,0.1637080430014481,
1.6861877872704807E12,-70.1348221462753,0.24802771923281455,
1.6861877872724338E12,-69.96689895394233,0.1816537572339982,
1.6861877872743872E12,-69.84717705017452,0.038629921551052604,
1.6861877872763403E12,-69.89057023015462,-0.1455574144105023,
1.6861877872782937E12,-70.01637439128253,-0.2574476446240252,
1.6861877872802468E12,-70.10652642725226,-0.19732535142578178,
1.6861877872822002E12,-70.2811809716043,-0.06200218605313698,
1.6861877872841533E12,-70.32481455701365,0.11238510340076042,
1.6861877872861067E12,-70.26372753744056,0.19103985023173287,
1.6861877872880598E12,-70.10453106218947,0.24756051343876612,
1.6861877872900132E12,-69.93528563999561,0.09035193040276436,
1.6861877872919663E12,-69.84537400945513,0.008010448953354803,
1.6861877872939197E12,-69.91434632710771,-0.1761799188824973,
1.6861877872958728E12,-70.05046388115055,-0.2585952325352307,
1.6861877872978262E12,-70.24240357586585,-0.1740844239736252,
1.6861877872997793E12,-70.35524988435704,-0.028129960952855203,
1.6861877873017327E12,-70.29846612196756,0.1398500170629931,
1.6861877873036858E12,-70.16453625733092,0.24832604184794582,
1.686187787305639E12,-69.9908433346959,0.19315614199536138,
1.6861877873075923E12,-69.85955792978103,0.0616079695629036,
1.6861877873095454E12,-69.88083381026989,-0.12200246580199503,
1.6861877873114988E12,-70.00250299801465,-0.25259506855073033,
1.686187787313452E12,-70.1785038127705,-0.21309052271622358,
1.6861877873154053E12,-70.33130550360347,-0.08458420945194096,
1.6861877873173584E12,-70.35698080344766,0.09392646636261623,
1.6861877873193118E12,-70.27776721450891,0.23094934507202364,
1.686187787321265E12,-70.12878797000106,0.22419215304394316,
1.6861877873232183E12,-69.88422352682235,0.10592154876486364,
1.6861877873251714E12,-69.84585482031363,0.025094826615321208,
1.6861877873271248E12,-69.90446566396542,-0.1521743602933719,
1.686187787329078E12,-70.0350058120496,-0.2458726915119199,
1.6861877873310312E12,-70.21482907313057,-0.19144697517601822,
1.6861877873329844E12,-70.35118703260267,-0.052254777448224154,
1.6861877873349375E12,-70.31712158327757,0.12684685402351326,
1.6861877873368909E12,-70.18612466487781,0.2505687449128148,
1.686187787338844E12,-70.00899394460447,0.2061420446914403,
1.6861877873407974E12,-69.86383714642173,0.08349427025806679,
1.6861877873427505E12,-69.87225133644557,-0.09910443220504414,
1.6861877873447039E12,-69.98416006376267,-0.2398615841512755,
1.686187787346657E12,-70.15879056757178,-0.2247844715530865,
1.6861877873486104E12,-70.32289131357963,-0.09395686829358053,
1.6861877873505635E12,-70.34621064021714,0.07770049193670608,
1.6861877873525168E12,-70.23086411526172,0.2276557905230941,
1.68618778735447E12,-70.15294871564095,0.24170943708427622,
1.6861877873564233E12,-69.97822204966013,0.1301720685286439,
1.6861877873583765E12,-69.85224960473175,-0.034591002193404594,
1.6861877873603298E12,-69.89287812227545,-0.20734559730826882,
1.686187787362283E12,-70.10390600807341,-0.2489481798138993,
1.6861877873642363E12,-70.19891423371405,-0.20094169505581508,
1.6861877873661895E12,-70.34229203172032,-0.05998649505652128,
1.6861877873681426E12,-70.32986307102796,0.1071811771944274,
1.686187787370096E12,-70.20312132872597,0.2589313264147896,
1.686187787372049E12,-70.02906779794706,0.22334136999826304,
1.6861877873740024E12,-69.88165118872935,0.10573944554538371,
1.6861877873759556E12,-69.86537574116895,-0.07075527021929585,
1.686187787377909E12,-69.96937512986364,-0.22536848891627725,
1.686187787379862E12,-70.13597609233571,-0.23364600270391422,
1.6861877873818154E12,-70.30438009552718,-0.11088746633243547,
1.6861877873837686E12,-70.34866277559551,0.053687501775885486,
1.686187787385722E12,-70.24557692753199,0.2187952238302556,
1.686187787387675E12,-70.08681318205355,0.24718631779204764,
1.6861877873896284E12,-69.92562134173966,0.15184492493949261,
1.6861877873915815E12,-69.8520091993025,-0.018295667064165896,
1.686187787393535E12,-69.88073764809819,-0.19066811642345757,
1.686187787395488E12,-70.00154137629764,-0.2540050272865507,
1.6861877873974412E12,-70.17737390725301,-0.15149243354172748,
1.6861877873993945E12,-70.33267581455021,0.002105438976024368,
1.6861877874013477E12,-70.34330173452318,0.09278165786240113,
1.686187787403301E12,-70.14208239023873,0.23154369703994707,
1.6861877874052542E12,-70.05741159805595,0.23399427403944237,
1.6861877874072075E12,-69.89278196010375,0.11771269178068952,
1.6861877874091606E12,-69.85602396997102,-0.14669217923337768,
1.686187787411114E12,-69.95632111505522,-0.22212209515718714,
1.6861877874130671E12,-70.1144598064176,-0.24319703611676274,
1.6861877874150205E12,-70.29312912143816,-0.13439651641425757,
1.6861877874169736E12,-70.35565857358677,0.03324221466747571,
1.686187787418927E12,-70.25992913165837,0.19156914600728284,
1.6861877874208801E12,-70.10505995413382,0.24473448332918316,
1.6861877874228335E12,-69.93567028868242,0.15057775526513859,
1.6861877874247866E12,-69.85126394247182,-0.0011480437986178106,
1.68618778742674E12,-69.92230374681597,-0.1809217071402693,
1.686187787428693E12,-69.97843841454646,-0.2586096270861157,
1.6861877874306462E12,-70.15213133718149,-0.17119212130575048,
1.6861877874325996E12,-70.36188507420441,-0.023820600454326022,
1.6861877874345527E12,-70.35200441106213,0.14502555324388397,
1.686187787436506E12,-70.23908598094216,0.21679327429982306,
1.6861877874384592E12,-70.07428805918948,0.1866896477122794,
1.6861877874404126E12,-69.91388955679213,0.12739350615134618,
1.6861877874423657E12,-69.8560960915998,-0.036136239626513036,
1.686187787444319E12,-69.94432488413551,-0.21196051593070703,
1.6861877874462722E12,-70.09727081822604,-0.25661570849147824,
1.6861877874482256E12,-70.27271870049461,-0.08339459078005418,
1.6861877874501787E12,-70.36056284434352,0.0035188954092327833,
1.686187787452132E12,-70.27334375461066,0.1671893087645571,
1.6861877874540852E12,-70.12542229399152,0.24520897424535568,
1.6861877874560386E12,-69.95584030419671,0.16044228274961228,
1.6861877874579917E12,-69.84708088800282,0.02009192669919251,
1.6861877874599448E12,-69.90528304242488,-0.16717001378008697,
1.6861877874618982E12,-70.03572702833736,-0.25603815270341207,
1.6861877874638513E12,-70.2172331274231,-0.19283037013435914,
1.6861877874658047E12,-70.34270072095005,-0.04182828906341717,
1.6861877874677578E12,-70.34392678863924,0.12100499734350603,
1.6861877874697112E12,-70.24401429224184,0.2467756002501545,
1.6861877874716643E12,-70.00332037647411,0.1980226800209647,
1.6861877874736177E12,-69.92566942282551,0.07862226837871496,
1.6861877874755708E12,-69.84602310411411,-0.017064426064514904,
1.6861877874775242E12,-69.92405870644951,-0.18507992885158076,
1.6861877874794773E12,-70.07250905901302,-0.2343242665499098,
1.6861877874814307E12,-70.25533738795964,-0.16648725145423818,
1.6861877874833838E12,-70.35827899276562,-0.012876836546232322,
1.6861877874853372E12,-70.2903163779159,0.1631030728390106,
1.6861877874872903E12,-70.15088122894937,0.2475542552054441,
1.6861877874892437E12,-69.97454384659257,0.185174932917555,
1.6861877874911968E12,-69.8543892130521,0.04382210907454996,
1.68618778749315E12,-69.89573894688355,-0.1417887706963589,
1.6861877874951033E12,-70.02118249986758,-0.25954894243736437,
1.6861877874970564E12,-70.20107788257732,-0.19681739801193313,
1.6861877874990098E12,-70.3478934782219,-0.06738969076740244,
1.686187787500963E12,-70.33149782794688,0.11176063128828674,
1.6861877875029163E12,-70.20417911261468,0.2390379431314426,
1.6861877875048694E12,-70.11657537419502,0.22262889058875987,
1.6861877875068228E12,-69.94610388431198,0.09751878217203136,
1.686187787508776E12,-69.84912433415147,-0.07429478374243406,
1.6861877875107292E12,-69.98004913092245,-0.2299078320465529,
1.6861877875126824E12,-70.05673846285404,-0.25215207164445447,
1.6861877875146357E12,-70.24213912989367,-0.17506982737690696,
1.6861877875165889E12,-70.35948101991188,-0.023479536094505874,
1.6861877875185422E12,-70.30998154202877,0.21967114764160936,
1.6861877875204954E12,-70.17078679849149,0.2597806961205111,
1.6861877875224485E12,-69.99596397033898,0.20049781934573438,
1.6861877875244019E12,-69.86263511927547,0.07079289836660307,
1.686187787526355E12,-69.88751708120311,-0.10894991275798199,
1.6861877875283083E12,-70.00271936290098,-0.24539825833271,
1.6861877875302615E12,-70.18453798904474,-0.21050201016328715,
1.6861877875322148E12,-70.33832534213765,-0.08052586311201283,
1.686187787534168E12,-70.3382772610518,0.09817123217091146,
1.6861877875361213E12,-70.21963718171563,0.24138731044491557,
1.6861877875380745E12,-70.05700290882622,0.2352485145456572,
1.6861877875400278E12,-69.89496964950995,0.12050520956925992,
1.686187787541981E12,-69.8617215786443,-0.051177492183741055,
1.6861877875439343E12,-69.90650911011407,-0.21896492486469657,
1.6861877875458875E12,-70.03688097439777,-0.23870919000305973,
1.6861877875478408E12,-70.21850727619814,-0.12784481872440917,
1.686187787549794E12,-70.35241310029186,-0.045779794827428354,
1.686187787551747E12,-70.26156388857729,0.12373992370841655,
1.6861877875537004E12,-70.1945869359875,0.25437757203175115,
1.6861877875556536E12,-70.02014875652179,0.2079009395970215,
1.686187787557607E12,-69.87376589064986,0.0019903483611029313,
1.68618778755956E12,-69.87641035037164,-0.09941184222331939,
1.6861877875615134E12,-69.98697280728493,-0.23728718649657426,
1.6861877875634666E12,-70.161939878695,-0.23169275526969962,
1.68618778756542E12,-70.32529536787216,-0.09913326249962554,
1.686187787567373E12,-70.35104278934512,0.06775796355653876,
1.6861877875693264E12,-70.239783156687,0.22123536625995918,
1.6861877875712795E12,-70.0756343295933,0.23013845353455578,
1.686187787573233E12,-69.9090093265783,0.13236916197591142,
1.686187787575186E12,-69.85938964598056,-0.041693678422013505,
1.6861877875771394E12,-69.95071966855363,-0.2037728648456337,
1.6861877875790925E12,-70.0183457158024,-0.25548626472357455,
1.686187787581046E12,-70.28507553955819,-0.1460561541061086,
1.686187787582999E12,-70.3451288157855,0.005425341119716987,
1.6861877875849521E12,-70.33260369292144,0.17290528667414062,
1.6861877875869055E12,-70.21355492435553,0.2394945733622011,
1.6861877875888586E12,-70.03916482597567,0.21692260824806664,
1.686187787590812E12,-69.85203323984543,0.08945803237051644,
1.6861877875927651E12,-69.8653276600831,-0.08042423744143522,
1.6861877875947185E12,-69.97197150849956,-0.24193269481875884,
1.6861877875966716E12,-70.14203430915288,-0.24688737468198763,
1.686187787598625E12,-70.31274620446517,-0.05134043785566873,
1.6861877876005781E12,-70.36046668217182,0.038652227899916125,
1.6861877876025315E12,-70.25521718524502,0.19820975730295234,
1.6861877876044846E12,-70.09330412864337,0.23987350545409247,
1.686187787606438E12,-69.9249001254519,0.13515625808174453,
1.686187787608391E12,-69.85311506427706,-0.01855389465181824,
1.6861877876103445E12,-69.93518947782391,-0.2009539856521024,
1.6861877876122976E12,-70.08012991112032,-0.2595859360744154,
1.6861877876142507E12,-70.26190045617824,-0.1668752703051004,
1.686187787616204E12,-70.36147638497468,-0.00868466153721516,
1.6861877876181572E12,-70.34219586954862,0.1584062487484954,
1.6861877876201106E12,-70.14576059330629,0.24552337672505842,
1.6861877876220637E12,-70.0603205037499,0.17289897219913547,
1.686187787624017E12,-69.90420121799325,0.11884228787834691,
1.6861877876259702E12,-69.86256299764669,-0.055739477480004636,
1.6861877876279236E12,-69.95817223686046,-0.26405636351215805,
1.6861877876298767E12,-70.11385879284447,-0.25439890336472665,
1.68618778763183E12,-70.29673520287695,-0.14067845669124482,
1.6861877876337832E12,-70.3614042633459,0.02452063763540099,
1.6861877876357366E12,-70.2694732271997,0.18510762058530306,
1.6861877876376897E12,-70.11049311683493,0.24387507310187176,
1.686187787639643E12,-69.94148810007033,0.15525764384872143,
1.6861877876415962E12,-69.85109565867134,0.003797763160189733,
1.6861877876435496E12,-69.92377021993441,-0.17256464045581726,
1.6861877876455027E12,-70.06255627424196,-0.2584796518881428,
1.6861877876474558E12,-70.24509611667348,-0.17263610854473507,
1.6861877876494092E12,-70.3593127361114,-0.02241968288722914,
1.6861877876513623E12,-70.30385120358282,0.1454024192765117,
1.6861877876533157E12,-70.16859910908529,0.2567377686541898,
1.6861877876552688E12,-70.08183678966802,0.19647769386985142,
1.6861877876572222E12,-69.91672634085731,0.06879942897929091,
1.6861877876591753E12,-69.85926944326593,-0.11496850426721256,
1.6861877876611287E12,-70.00671009302657,-0.23757725595150073,
1.6861877876630818E12,-70.0936166557014,-0.2411695646863068,
1.6861877876650352E12,-70.27932984979905,-0.13840630563017797,
1.6861877876669883E12,-70.3627264932068,0.09991886686386653,
1.6861877876689417E12,-70.27973853902878,0.18030807043801142,
1.6861877876708948E12,-70.13563952473476,0.25768517789653256,
1.6861877876728481E12,-69.96367752119035,0.1821692171389462,
1.6861877876748013E12,-69.85294678047659,0.03164978178895024,
1.6861877876767544E12,-69.91066812404014,-0.14898333803869493,
1.6861877876787078E12,-70.039381190862,-0.2536964581718751,
1.686187787680661E12,-70.22468569572993,-0.18396637984963854,
1.6861877876826143E12,-70.35753373593494,-0.04591306521209713,
1.6861877876845674E12,-70.31930927268377,0.13166527504212247,
1.6861877876865208E12,-70.18814407048353,0.25091296919839134,
1.6861877876884739E12,-70.01788894548682,0.210185996979958,
1.6861877876904272E12,-69.87321295816258,0.08438806551016709,
1.6861877876923804E12,-69.85321122644876,-0.09558433200130245,
1.6861877876943337E12,-69.93117470715539,-0.2421324016821886,
1.6861877876962869E12,-70.0761151404518,-0.22658243579414877,
1.6861877876982402E12,-70.25569799610352,-0.09831448506715536,
1.6861877877001934E12,-70.34866277559551,-0.01237944310945086,
1.6861877877021467E12,-70.29529277030143,0.15977241879122867,
1.6861877877040999E12,-70.15470367527449,0.2542221835358452,
1.6861877877060532E12,-69.9817079283843,0.12574740021258984,
1.6861877877080063E12,-69.8586684296928,0.04564710951981608,
1.6861877877099595E12,-69.89609955502743,-0.13650682847234957,
1.6861877877119128E12,-70.0164465129113,-0.2581420427904724,
1.686187787713866E12,-70.19951524728718,-0.20458428472312115,
1.6861877877158193E12,-70.34625872130299,-0.0705477226224572,
1.6861877877177725E12,-70.32793982759394,0.10914661896871211,
1.6861877877197258E12,-70.20389062609958,0.2364879434198234,
1.686187787721679E12,-70.03827532588744,0.21727867093678213,
1.6861877877236323E12,-69.88052128321186,0.09531256759688642,
1.6861877877255854E12,-69.8652314979114,-0.08005826018382281,
1.6861877877275388E12,-69.97365434650433,-0.24131648053697782,
1.686187787729492E12,-70.14076016037784,-0.23408587128463887,
1.6861877877314453E12,-70.23432595344296,-0.12354062135775379,
1.6861877877333984E12,-70.35710100616228,0.04695555617069426,
1.6861877877353518E12,-70.31274620446517,0.20036435784230688,
1.686187787737305E12,-70.17417651504395,0.24208362771292666,
1.686187787739258E12,-69.92172677378576,0.18824528401284046,
1.6861877877412114E12,-69.8673230251459,0.06686997497336199,
1.6861877877431646E12,-69.89045002744,-0.12412360253076224,
1.686187787745118E12,-70.00315209267363,-0.24860395097589286,
1.686187787747071E12,-70.17826340734125,-0.1673246351332958,
1.6861877877490244E12,-70.33762816639282,-0.09060130073157682,
1.6861877877509775E12,-70.34488841035625,0.07417973422309014,
1.686187787752931E12,-70.22504630387381,0.23051211276896216,
1.686187787754884E12,-70.05995989560603,0.2182376970770998,
1.6861877877568374E12,-69.9000662446101,0.11770316892521653,
1.6861877877587905E12,-69.86535170062602,-0.06675449802039382,
1.686187787760744E12,-69.9609609398398,-0.22013242110761191,
1.686187787762697E12,-70.12138348278008,-0.25512291793186076,
1.6861877877646504E12,-70.29724005427838,-0.13406585863883583,
1.6861877877666035E12,-70.35847131710902,0.0211894151761106,
1.686187787768557E12,-70.32902165202557,0.19730399269733934,
1.68618778777051E12,-70.11099796823636,0.23847400948533456,
1.6861877877724631E12,-70.02683202745501,0.15620357499547247,
1.6861877877744165E12,-69.87917501280805,0.08065768955922811,
1.6861877877763696E12,-69.87470347182395,-0.17755554892396658,
1.686187787778323E12,-69.98678048294153,-0.2449222322143923,
1.6861877877802761E12,-70.15689136468069,-0.22452488151429326,
1.6861877877822295E12,-70.31976604299935,-0.11211681431596415,
1.6861877877841826E12,-70.35318239766546,0.06941342664491526,
1.686187787786136E12,-70.2419708460932,0.2506320971984214,
1.686187787788089E12,-70.07863939745896,0.24367347781341056,
1.6861877877900425E12,-69.91619744891295,0.13188785460789296,
1.6861877877919956E12,-69.85739428091776,-0.03269857531701004,
1.686187787793949E12,-69.94805116828893,-0.20774990778669614,
1.686187787795902E12,-70.09849688591522,-0.250890575592065,
1.6861877877978555E12,-70.28293593123784,-0.14915987194852645,
1.6861877877998086E12,-70.36263033103509,0.016416721078562686,
1.6861877878017617E12,-70.27865671459715,0.1821273921436701,
1.686187787803715E12,-70.1311199026648,0.2566570910229482,
1.6861877878056682E12,-70.0441412183612,0.1727056738143125,
1.6861877878076216E12,-69.88953648680884,0.02960537535089136,
1.6861877878095747E12,-69.91263944856001,-0.1532487093823421,
1.686187787811528E12,-69.96805290000275,-0.2518586846266158,
1.6861877878134812E12,-70.13198536221012,-0.23290474748823775,
1.6861877878154346E12,-70.30329827109554,-0.03633304552907535,
1.6861877878173877E12,-70.36176487148978,0.04948738063719162,
1.686187787819341E12,-70.25894346939843,0.20497120865246846,
1.6861877878212942E12,-70.09467443959011,0.24763364642155164,
1.6861877878232476E12,-69.92615023368401,0.1506865906974703,
1.6861877878252007E12,-69.85160051007277,-0.0034065517460214125,
1.686187787827154E12,-69.94165638387081,-0.1882430141580342,
1.6861877878291072E12,-70.07623534316643,-0.2508340622629431,
1.6861877878310605E12,-70.25966468568619,-0.16139634742052622,
1.6861877878330137E12,-70.35960122262651,5.2944985441977205E-5,
1.6861877878349668E12,-70.2901240535725,0.16612758649971338,
1.6861877878369202E12,-70.15215537772441,0.2592799458199086,
1.6861877878388733E12,-69.98033761743756,0.183340140718921,
1.6861877878408267E12,-69.85922136218008,0.04749997326133305,
1.6861877878427798E12,-69.86220238950281,-0.1385327014709026,
1.6861877878447332E12,-69.95523929062358,-0.24972425568468143,
1.6861877878466863E12,-70.10705531919662,-0.19787201226489978,
1.6861877878486396E12,-70.35048985685783,-0.05962275158242882,
1.6861877878505928E12,-70.3610196146591,0.023527123221921343,
1.6861877878525461E12,-70.27036272728793,0.191501547962091,
1.6861877878544993E12,-70.11715234722523,0.24545661661425472,
1.6861877878564526E12,-69.94716166820069,0.10064541943780513,
1.6861877878584058E12,-69.85217748310298,0.010460900626648768,
1.6861877878603591E12,-69.92001989523807,-0.1729529884877437,
1.6861877878623123E12,-70.05476713833417,-0.2592924495385918,
1.6861877878642654E12,-70.23824456193978,-0.17442397613569746,
1.6861877878662188E12,-70.35469695186976,-0.03282536969049439,
1.6861877878681719E12,-70.3061110146178,0.14051747815653717,
1.6861877878701252E12,-70.1709791228349,0.24929174484651134,
1.6861877878720784E12,-69.99937772743436,0.19237949360715081,
1.6861877878740317E12,-69.8629476463335,0.06234800223517772,
1.6861877878759849E12,-69.8813146211284,-0.12278114682573969,
1.6861877878779382E12,-70.00401755221894,-0.25622474600741996,
1.6861877878798914E12,-70.18184544823711,-0.21850991559387017,
1.6861877878818447E12,-70.26913665959874,-0.08714432936239018,
1.6861877878837979E12,-70.35859151982365,0.08187564205864181,
1.6861877878857512E12,-70.28250320146519,0.22760722995021804,
1.6861877878877043E12,-70.13876479531504,0.24561884778729146,
1.6861877878896577E12,-69.89477732516654,0.16961030466064853,
1.6861877878916108E12,-69.85328334807754,0.021906956026042194,
1.6861877878935642E12,-69.90932185363633,-0.15479379750913108,
1.6861877878955173E12,-70.03656844733975,-0.2513001094785324,
1.6861877878974705E12,-70.21646383004949,-0.19411048265030068,
1.6861877878994238E12,-70.35354300580934,-0.05783582509755726,
1.686187787901377E12,-70.32221817837772,0.11990934637485802,
1.6861877879033303E12,-70.19069236803361,0.2378786567611916,
1.6861877879052834E12,-70.01716772919906,0.20610047957334254,
1.6861877879072368E12,-69.87090506604176,0.07995688926313677,
1.68618778790919E12,-69.87698732340185,-0.09659968427698122,
1.6861877879111433E12,-69.98728533434296,-0.24982471744011958,
1.6861877879130964E12,-70.15977622983172,-0.22419585933677705,
1.6861877879150498E12,-70.32320384063766,-0.1072600732623247,
1.686187787917003E12,-70.35529796544289,0.06638511047840742,
1.6861877879189563E12,-70.23747526456617,0.21645799456975223,
1.6861877879209094E12,-70.15828571617035,0.24040457700859788,
1.6861877879228628E12,-69.98766998302976,0.12380773852695426,
1.686187787924816E12,-69.85816357829137,-0.03412011334537509,
1.686187787926769E12,-69.89573894688355,-0.13626768771832865,
1.6861877879287224E12,-70.10356944047246,-0.2494599971126532,
1.6861877879306755E12,-70.1968707875654,-0.2140006407908623,
1.686187787932629E12,-70.35012924871396,-0.06556850364718574,
1.686187787934582E12,-70.33529623372907,0.1777736407245973,
1.6861877879365354E12,-70.21398765412819,0.24218821583616107,
1.6861877879384885E12,-70.04277090741446,0.20984905720253383,
1.686187787940442E12,-69.88758920283189,0.10717128359952288,
1.686187787942395E12,-69.86472664650996,-0.0771443640365089,
1.6861877879443484E12,-69.97149069764106,-0.22660715458221398,
1.6861877879463015E12,-70.14318825521329,-0.24294849520574263,
1.686187787948255E12,-70.30793809588012,-0.1134613899066332,
1.686187787950208E12,-70.35585089793017,0.04278315718812653,
1.6861877879521614E12,-70.25153898217745,0.21193357960831857,
1.6861877879541145E12,-70.18141271846446,0.23815965265972966,
1.6861877879560679E12,-70.01079698532386,0.15129367764689503,
1.686187787958021E12,-69.85131202355767,-0.017153218767567473,
1.686187787959974E12,-69.8817954319869,-0.18489706737403286,
1.6861877879619275E12,-69.99812761920225,-0.25358331945324225,
1.6861877879638806E12,-70.17230135269578,-0.2167582193266933,
1.686187787965834E12,-70.3318103550049,-0.005522715626885153,
1.686187787967787E12,-70.34221991009154,0.08518632234552034,
1.6861877879697405E12,-70.2266570202498,0.22680988262531582,
1.6861877879716936E12,-70.06051282809331,0.23691014112216965,
1.686187787973647E12,-69.8980708795473,0.11963175942482779,
1.6861877879756E12,-69.85746640254654,-0.0458326081219229,
1.6861877879775535E12,-69.9543978716212,-0.21301059365397815,
1.6861877879795066E12,-70.11373859012984,-0.24281538723464957,
1.68618778798146E12,-70.2928887160089,-0.13495582609811252,
1.686187787983413E12,-70.36013011457086,0.030914786351946087,
1.6861877879853665E12,-70.26322268603913,0.1909956729192441,
1.6861877879873196E12,-70.11114221149391,0.25124352311103343,
1.6861877879892727E12,-69.94449316793599,0.15924236974894349,
1.686187787991226E12,-69.85198515875958,0.009140668007369358,
1.6861877879931792E12,-69.86931839020869,-0.1756135928125668,
1.6861877879951326E12,-69.97473617093597,-0.2560551369839963,
1.6861877879970857E12,-70.14963112071726,-0.17136906684227005,
1.686187787999039E12,-70.36015415511379,-0.025646414677075142,
1.6861877880009922E12,-70.34962439731252,0.06305740473630728,
1.6861877880029456E12,-70.23932638637142,0.214818832938776,
1.6861877880048987E12,-70.07832687040093,0.1944253670965731,
1.686187788006852E12,-69.91223075933028,0.13519036497181422,
1.6861877880088052E12,-69.85674518625878,-0.025088854944623082,
1.6861877880107585E12,-69.94478165445109,-0.20113874760782988,
1.6861877880127117E12,-70.09227038529758,-0.2550604537371684,
1.686187788014665E12,-70.27348799786822,-0.1578181121802726,
1.6861877880166182E12,-70.35919253339678,0.011824223699758562,
1.6861877880185715E12,-70.28211855277839,0.17400983317856314,
1.6861877880205247E12,-70.12905241597323,0.25468788794436414,
1.6861877880224778E12,-69.96221104807191,0.15762415384039877,
1.6861877880244312E12,-69.85441325359503,0.02984677115419408,
1.6861877880263843E12,-69.91456269199404,-0.16116269587493276,
1.6861877880283376E12,-70.03803492045819,-0.25371321669812386,
1.6861877880302908E12,-70.130735253978,-0.19228609385787493,
1.6861877880322441E12,-70.30325019000969,-0.04644200552127924,
1.6861877880341973E12,-70.3571250467052,0.11696172106141425,
1.6861877880361506E12,-70.25540950958842,0.246342977150954,
1.6861877880381038E12,-70.01762449951464,0.2346921520464389,
1.6861877880400571E12,-69.934516342622,0.1502068707618086,
1.6861877880420103E12,-69.85321122644876,-0.01042511758278573,
1.6861877880439636E12,-69.93434805882153,-0.24512576282863568,
1.6861877880459167E12,-70.07676423511079,-0.2645079494803073,
1.68618778804787E12,-70.25721255030781,-0.16503954823773323,
1.6861877880498232E12,-70.36094749303032,-0.020609820793445612,
1.6861877880517764E12,-70.29096547257488,0.15816628221822285,
1.6861877880537297E12,-70.14936667474508,0.24454698061557564,
1.6861877880556829E12,-69.98305419878811,0.18536227686766873,
1.6861877880576362E12,-69.86186582190186,0.04229061892910813,
1.6861877880595894E12,-69.89381570344953,-0.13275484721073574,
1.6861877880615427E12,-70.0186342023175,-0.2571555033381961,
1.6861877880634958E12,-70.20232799080944,-0.20045643812656536,
1.6861877880654492E12,-70.3494080324262,-0.07280644146727872,
1.6861877880674023E12,-70.33358935518137,0.10650181901308174,
1.6861877880693557E12,-70.27365628166869,0.2359981331962345,
1.6861877880713088E12,-70.12282591535559,0.2248507976780112,
1.6861877880732622E12,-69.95584030419671,0.09583456174793047,
1.6861877880752153E12,-69.85044656401236,-0.07533420890180784,
1.6861877880771687E12,-69.97050503538112,-0.16825662550113762,
1.6861877880791218E12,-70.04719436731271,-0.2516775687602864,
1.686187788081075E12,-70.23682616990719,-0.180488786555492,
1.6861877880830283E12,-70.35808666842222,-0.03139758476671435,
1.6861877880849814E12,-70.30880355542543,0.20845841354852812,
1.6861877880869348E12,-70.17533046110437,0.254577586910821,
1.686187788088888E12,-70.00122884923961,0.1951980855941654,
1.6861877880908413E12,-69.86289956524764,0.07181304707363023,
1.6861877880927944E12,-69.88410332410773,-0.11062456352357006,
1.6861877880947478E12,-70.00250299801465,-0.2446308205932142,
1.686187788096701E12,-70.17665269096526,-0.21505531221284196,
1.6861877880986543E12,-70.33457501744131,-0.08125924267171215,
1.6861877881006074E12,-70.34339789669488,0.09128883304084326,
1.6861877881025608E12,-70.22468569572993,0.23901617245004414,
1.686187788104514E12,-70.14515957973316,0.23269626177499267,
1.6861877881064673E12,-69.96944725149241,0.12306608172070498,
1.6861877881084204E12,-69.8606637947556,-0.04896944846412464,
1.6861877881103738E12,-69.90513879916733,-0.21250552189984237,
1.686187788112327E12,-70.03303448752973,-0.24350772679421334,
1.68618778811428E12,-70.21530988398908,-0.1265374870180443,
1.6861877881162334E12,-70.3498888432847,-0.04568524762353502,
1.6861877881181865E12,-70.32344424606691,0.12337772618555388,
1.68618778812014E12,-70.19177419246525,0.2550442691638467,
1.686187788122093E12,-70.02303362167282,0.21527054580085883,
1.6861877881240464E12,-69.87328507979136,0.010019102590954608,
1.6861877881259995E12,-69.87362164739231,-0.08606081946753077,
1.686187788127953E12,-69.98254934738668,-0.23640308219321535,
1.686187788129906E12,-70.15592974296368,-0.22485366406440588,
1.6861877881318594E12,-70.32481455701365,-0.1003749630157837,
1.6861877881338125E12,-70.35335068146594,0.0671364560576253,
1.6861877881357659E12,-70.24141791360591,0.22565910954245966,
1.686187788137719E12,-70.07623534316643,0.24448446423041875,
1.6861877881396724E12,-69.91417804330723,0.14115136796015226,
1.6861877881416255E12,-69.86023106498294,-0.03482037340594558,
1.6861877881435786E12,-69.89633996045669,-0.19612595079057216,
1.686187788145532E12,-70.01409053970463,-0.24845194503791604,
1.686187788147485E12,-70.27954621468538,-0.14075397983288165,
1.6861877881494385E12,-70.3426526398642,-0.0750815983796354,
1.6861877881513916E12,-70.33652230141826,0.09879660132909802,
1.686187788153345E12,-70.21853131674106,0.25388294275472106,
1.686187788155298E12,-70.04902144857503,0.2264801192519986,
1.6861877881572515E12,-69.8883585002055,0.10589636146999339,
1.6861877881592046E12,-69.86811636306243,-0.06542917673011957,
1.686187788161158E12,-69.97192342741371,-0.22895706255327675,
1.686187788163111E12,-70.1350144706187,-0.23679314059559817,
1.6861877881650645E12,-70.31200094763449,-0.12493915352876846,
1.6861877881670176E12,-70.36034647945719,0.043469446211677844,
1.686187788168971E12,-70.25324586072514,0.20257958295652911,
1.686187788170924E12,-70.10135771052333,0.24511327535720498,
1.6861877881728774E12,-69.93038136923886,0.1452824723801625,
1.6861877881748306E12,-69.85559124019836,-0.012481256755883251,
1.6861877881767837E12,-69.9383147484042,-0.1940555091088922,
1.686187788178737E12,-70.07936061374672,-0.260079854435441,
1.6861877881806902E12,-70.1709791228349,-0.16509221717395045,
1.6861877881826436E12,-70.3319065171766,-0.012153523992914564,
1.6861877881845967E12,-70.34938399188327,0.15309479002698073,
1.68618778818655E12,-70.15340548595653,0.2461121375256505,
1.6861877881885032E12,-70.06765286934211,0.22789760524661784,
1.6861877881904565E12,-69.9085285157198,0.12265904190327334,
1.6861877881924097E12,-69.86434199782316,-0.05261082937167598,
1.686187788194363E12,-69.9610571020115,-0.2632575014874556,
1.6861877881963162E12,-70.1128490900416,-0.25262226331720816,
1.6861877881982695E12,-70.28930667511304,-0.1427155358248732,
1.6861877882002227E12,-70.3657796421583,0.01883136655420011,
1.686187788202176E12,-70.27329567352481,0.18431108531820845,
1.6861877882041292E12,-70.1217921720098,0.24073586320312673,
1.6861877882060823E12,-69.9518255335282,0.15190692743157608,
1.6861877882080356E12,-69.85179283441617,0.005689380834766934,
1.6861877882099888E12,-69.92523669305285,-0.17644209262575525,
1.6861877882119421E12,-70.05832513868711,-0.2606113341811963,
1.6861877882138953E12,-70.24211508935075,-0.18451370004651568,
1.6861877882158486E12,-70.36306306080775,-0.029723011394250144,
1.6861877882178018E12,-70.31435692084116,0.13614075838487075,
1.6861877882197551E12,-70.24966381982928,0.24577213944989088,
1.6861877882217083E12,-70.08902491200267,0.18470573624991354,
1.6861877882236616E12,-69.92377021993441,0.06309285556754927,
1.6861877882256147E12,-69.85994257846784,-0.030402671671720293,
1.686187788227568E12,-70.0053157415369,-0.20111699538110553,
1.6861877882295212E12,-70.09166937172445,-0.2556063217358748,
1.6861877882314746E12,-70.26562674033165,-0.15223307220002094,
1.6861877882334277E12,-70.35390361395322,0.08517299064114145,
1.686187788235381E12,-70.28007510662974,0.1697138977160489,
1.6861877882373342E12,-70.13172091623794,0.2509249855584769,
1.6861877882392874E12,-69.9609609398398,0.17091781056145666,
1.6861877882412407E12,-69.84491723913955,0.028735898789695728,
1.6861877882431938E12,-69.8973015821737,-0.15095809408837932,
1.6861877882451472E12,-70.02769748700032,-0.2540937357650794,
1.6861877882471003E12,-70.21535796507493,-0.1837975583574177,
1.6861877882490537E12,-70.35450462752635,-0.04120552162942062,
1.6861877882510068E12,-70.32034301602955,0.12492486683602812,
1.6861877882529602E12,-70.18759113799625,0.2475209967492633,
1.6861877882549133E12,-70.1032328728715,0.2148468175466478,
1.6861877882568667E12,-69.87003960649645,0.09186326155640671,
1.6861877882588198E12,-69.84931665849487,-0.09313114723028507,
1.6861877882607732E12,-69.92634255802741,-0.23794413063129993,
1.6861877882627263E12,-70.06964823440491,-0.22402356115165706,
1.6861877882646797E12,-70.25269292823786,-0.1613938786843641,
1.6861877882666328E12,-70.35094662717341,-0.013067358831879629,
1.686187788268586E12,-70.29721601373545,0.15703493852309397,
1.6861877882705393E12,-70.15657883762266,0.2593237346720946,
1.6861877882724924E12,-69.9872372532571,0.14278643278389994,
1.6861877882744458E12,-69.85597588888517,0.062408694551061274,
1.686187788276399E12,-69.89751794706002,-0.12331820240329464,
1.6861877882783523E12,-70.01678308051225,-0.24882063315484163,
1.6861877882803054E12,-70.20088555823392,-0.19527406304955405,
1.6861877882822588E12,-70.35068218120124,-0.0665554914209213,
1.686187788284212E12,-70.33940716656929,0.11213868083197084,
1.6861877882861653E12,-70.21122299169178,0.24525127430739074,
1.6861877882881184E12,-70.04190544786915,0.22893597927091489,
1.6861877882900718E12,-69.89338297367688,0.10491637398580858,
1.686187788292025E12,-69.86068783529852,-0.06408521156227204,
1.6861877882939783E12,-69.91797644908942,-0.22796470710073644,
1.6861877882959314E12,-70.14102460635002,-0.23141876584216853,
1.6861877882978848E12,-70.23737910239447,-0.11893001025853124,
1.686187788299838E12,-70.3613081011742,-0.033856094476085376,
1.686187788301791E12,-70.31644844807566,0.13544037242186763,
1.6861877883037444E12,-70.18035493457575,0.2499061615886111,
1.6861877883056975E12,-70.00743130931433,0.19889836521967963,
1.686187788307651E12,-69.86655372777228,0.07677268224307236,
1.686187788309604E12,-69.8865554594861,-0.11207634199525565,
1.6861877883115574E12,-70.00219047095662,-0.24084669552898327,
1.6861877883135105E12,-70.17682097476573,-0.22094097046784827,
1.6861877883154639E12,-70.33834938268058,-0.0834752554503614,
1.686187788317417E12,-70.34851853233796,0.0788352407288067,
1.6861877883193704E12,-70.22795520956777,0.2343126307307355,
1.6861877883213235E12,-70.06623447730952,0.22772643105197493,
1.6861877883232769E12,-69.90602829925557,0.12440520000442061,
1.68618778832523E12,-69.86265915981839,-0.05497479895816467,
1.6861877883271833E12,-69.96245145350116,-0.21843239237213108,
1.6861877883291365E12,-70.12289803698437,-0.2526507127054376,
1.6861877883310896E12,-70.21567049213296,-0.13552774395111505,
1.686187788333043E12,-70.35611534390235,0.024354528180880897,
1.686187788334996E12,-70.33130550360347,0.19130658132464415,
1.6861877883369495E12,-70.1164551714804,0.24039675401350039,
1.6861877883389026E12,-70.03123144681034,0.2088288120459048,
1.686187788340856E12,-69.88001643181043,0.08672365499891888,
1.686187788342809E12,-69.87556893136926,-0.17460194134296284,
1.6861877883447625E12,-69.98442450973485,-0.24150513072416888,
1.6861877883467156E12,-70.15429498604476,-0.23171098090221334,
1.686187788348669E12,-70.32113635394609,-0.11690714248158761,
1.686187788350622E12,-70.35522584381411,0.05574681157279318,
1.6861877883525754E12,-70.24432681929987,0.21387954764490263,
1.6861877883545286E12,-70.08503418187708,0.23669479910184782,
1.686187788356482E12,-69.91903423297813,0.13105683791807096,
1.686187788358435E12,-69.8591492405513,-0.030079900313031354,
1.6861877883603884E12,-69.94427680304966,-0.20816133213869187,
1.6861877883623416E12,-70.09421766927453,-0.25521495724047905,
1.6861877883642947E12,-70.27702195767823,-0.14844389365191896,
1.686187788366248E12,-70.3636881149238,0.004034651965079701,
1.6861877883682012E12,-70.34161889651841,0.17546758221862924,
1.6861877883701545E12,-70.21526180290323,0.2501127047280007,
1.6861877883721077E12,-70.04844447554483,0.1686428356409755,
1.686187788374061E12,-69.8954023792826,0.026689369222010543,
1.6861877883760142E12,-69.91244712421661,-0.06287824426545638,
1.6861877883779675E12,-69.97088968406793,-0.22549502209152084,
1.6861877883799207E12,-70.13299506501298,-0.24013569672822016,
1.686187788381874E12,-70.30385120358282,-0.0466386913640725,
1.6861877883838271E12,-70.359120411768,0.04271286983946684,
1.6861877883857805E12,-70.26230914540797,0.19856347109435513,
1.6861877883877336E12,-70.10431469730314,0.24707453655126738,
1.686187788389687E12,-69.93930041066413,0.1463050662096966,
1.6861877883916401E12,-69.85474982119598,-4.8555743836124895E-4,
1.6861877883935933E12,-69.93636746442725,-0.18175326250360205,
1.6861877883955466E12,-70.07702868108296,-0.2526083337924931,
1.6861877883974998E12,-70.2603378208881,-0.16565139987980135,
1.6861877883994531E12,-70.36421700686816,-0.007984913734340446,
1.6861877884014062E12,-70.2966871217911,0.15579109589691395,
1.6861877884033596E12,-70.15881460811471,0.26245044242760174,
1.6861877884053127E12,-69.98278975281593,0.18222052932565197,
1.686187788407266E12,-69.90727840748768,0.056133155864999826,
1.6861877884092192E12,-69.85958197032396,-0.13495507088859263,
1.6861877884111726E12,-69.95324392556078,-0.24862259501995487,
1.6861877884131257E12,-70.10537248119185,-0.20762956148134937,
1.686187788415079E12,-70.34479224818455,-0.13547596185097788,
1.6861877884170322E12,-70.3585434387378,0.017144964666258884,
1.6861877884189856E12,-70.27305526809556,0.18993841018453597,
1.6861877884209387E12,-70.12176813146688,0.24556350526925821,
1.686187788422892E12,-69.94898874946301,0.1077051624523286,
1.6861877884248452E12,-69.8494368612095,0.01309309174725657,
1.6861877884267983E12,-69.92078919261168,-0.15347427676804337,
1.6861877884287517E12,-70.05190631372606,-0.2499312894097254,
1.6861877884307048E12,-70.2400716432021,-0.16893552908307596,
1.6861877884326582E12,-70.36022627674257,-0.028547466044719163,
1.6861877884346113E12,-70.31147205569013,0.149063011923085,
1.6861877884365647E12,-70.1743207583015,0.25748813908059165,
1.6861877884385178E12,-70.00762363365773,0.21154882619470744,
1.6861877884404712E12,-69.86664988994399,0.07400971115964841,
1.6861877884424243E12,-69.85462961848135,-0.10769292573127248,
1.6861877884443777E12,-70.00707070117045,-0.25338905277279405,
1.6861877884463308E12,-70.08986633100506,-0.21383033618773642,
1.6861877884482842E12,-70.27012232185868,-0.08692908375852375,
1.6861877884502373E12,-70.36284669592142,0.002200652533519797,
1.6861877884521907E12,-70.28721514787854,0.23033084079843166,
1.6861877884541438E12,-70.14145733612267,0.25514440763202684,
1.686187788456097E12,-69.97206767067127,0.17391279464563847,
1.6861877884580503E12,-69.85402860490822,0.033972786239562874,
1.6861877884600034E12,-69.90456182613713,-0.15237094792810027,
1.6861877884619568E12,-70.0297649736919,-0.2480158493041686,
1.68618778846391E12,-70.21783414099623,-0.19665000849730982,
1.6861877884658633E12,-70.35421614101125,-0.05418002132955913,
1.6861877884678164E12,-70.32625698958917,0.11373642679420429,
1.6861877884697698E12,-70.19845746339847,0.24604898413770682,
1.686187788471723E12,-70.02611081116726,0.2040049529524308,
1.6861877884736763E12,-69.87470347182395,0.08501856917399163,
1.6861877884756294E12,-69.87249174187482,-0.09869947922189164,
1.6861877884775828E12,-69.98507360439383,-0.24896520106031836,
1.686187788479536E12,-70.1573721755392,-0.23647434368057185,
1.6861877884814893E12,-70.24956765765758,-0.10946738460780761,
1.6861877884834424E12,-70.36323134460822,0.06182598105554513,
1.6861877884853958E12,-70.24132175143421,0.20851758042644097,
1.6861877884873489E12,-70.16410352755827,0.2438632181132504,
1.686187788489302E12,-69.99057888872372,0.1841588522560337,
1.6861877884912554E12,-69.8609522812707,-0.03566023829592218,
1.6861877884932085E12,-69.89468116299484,-0.1349330575235496,
1.6861877884951619E12,-70.01375397210367,-0.2551587928779259,
1.686187788497115E12,-70.1948754225026,-0.2136256371251751,
1.6861877884990684E12,-70.34572982935863,-0.07346529400922809,
1.6861877885010215E12,-70.33654634196118,0.09582801101262677,
1.6861877885029749E12,-70.21593493810514,0.24102132788851943,
1.686187788504928E12,-70.04685779971176,0.2171970454827648,
1.6861877885068813E12,-69.8909308382985,0.1060106237850907,
1.6861877885088345E12,-69.86491897085337,-0.07251819761451579,
1.6861877885107878E12,-69.97055311646697,-0.22958046477716576,
1.686187788512741E12,-70.13285082175543,-0.243605347079829,
1.6861877885146943E12,-70.30608697407487,-0.11867152200022789,
1.6861877885166475E12,-70.35707696561936,0.039352538117562626,
1.6861877885186006E12,-70.3177225968507,0.20372382101260383,
1.686187788520554E12,-70.18501879990325,0.24366657730349625,
1.686187788522507E12,-70.01594166150987,0.14772931428728953,
1.6861877885244604E12,-69.85643265920075,-0.01577000954715461,
1.6861877885264136E12,-69.88431968899405,-0.10509557804658806,
1.686187788528367E12,-70.00038743023723,-0.24812665425493832,
1.68618778853032E12,-70.17528238001852,-0.22036821587517955,
1.6861877885322734E12,-70.33327682812335,-0.007557900931500663,
1.6861877885342266E12,-70.35282178952158,0.08003498481414577,
1.68618778853618E12,-70.23591262927603,0.22982078398253802,
1.686187788538133E12,-70.06856640997327,0.23598725663611786,
1.6861877885400864E12,-69.90915356983585,0.12636171605947424,
1.6861877885420396E12,-69.86508725465384,-0.042498643257530076,
1.686187788543993E12,-69.96245145350116,-0.20941874278534223,
1.686187788545946E12,-70.11681577962428,-0.2432521890202074,
1.6861877885478994E12,-70.29772086513688,-0.13172578177480493,
1.6861877885498525E12,-70.3635919527521,0.02703818637839997,
1.6861877885518057E12,-70.26908857851289,0.1943693593444474,
1.686187788553759E12,-70.1186428608866,0.25292613229814126,
1.6861877885557122E12,-70.03892442054642,0.16981507255125333,
1.6861877885576655E12,-69.88484858093841,0.017749095127107345,
1.6861877885596187E12,-69.87597762059899,-0.16238685474130088,
1.686187788561572E12,-69.98504956385091,-0.251954118729809,
1.6861877885635251E12,-70.15116971546448,-0.22661184081552604,
1.6861877885654785E12,-70.368448142423,-0.1038925364321588,
1.6861877885674316E12,-70.36068304705815,0.06674285498439145,
1.686187788569385E12,-70.24670683304947,0.21546812734632118,
1.6861877885713381E12,-70.08825561462906,0.20271546135397586,
1.6861877885732915E12,-69.92386638210611,0.13935266794345919,
1.6861877885752446E12,-69.8568653889734,-0.018066769695581325,
1.686187788577198E12,-69.95026289823805,-0.19435424345902916,
1.6861877885791511E12,-70.09481868284766,-0.24463121730102005,
1.6861877885811042E12,-70.27865671459715,-0.153655090458798,
1.6861877885830576E12,-70.36710187201919,0.009543609294174658,
1.6861877885850107E12,-70.28988364814325,0.1684388396881556,
1.686187788586964E12,-70.14277956598356,0.25830619058844984,
1.6861877885889172E12,-69.97283696804487,0.17041511472052465,
1.6861877885908706E12,-69.85785105123334,0.035080547036567836,
1.6861877885928237E12,-69.86648160614351,-0.1545200331799137,
1.686187788594777E12,-70.03988604226343,-0.2531667940947846,
1.6861877885967302E12,-70.12859564565765,-0.1918066055056839,
1.6861877885986836E12,-70.30062977083084,-0.04890036153924416,
1.6861877886006367E12,-70.35981758751284,0.12121562475800239,
1.68618778860259E12,-70.26404006449859,0.20145874486783508,
1.6861877886045432E12,-70.02599060845263,0.24364210123288854,
1.6861877886064966E12,-69.9388917214344,0.15430968292402691,
1.6861877886084497E12,-69.8589569162079,-0.0028083100195719977,
1.6861877886104028E12,-69.93336239656159,-0.2383960276085415,
1.6861877886123562E12,-70.07250905901302,-0.25649531052120367,
1.6861877886143093E12,-70.25593840153277,-0.1677614847858873,
1.6861877886162627E12,-70.36498630424177,-0.020076373863957914,
1.6861877886182158E12,-70.30529363615834,0.15528120086859093,
1.6861877886201692E12,-70.16638737913617,0.2520664407770252,
1.6861877886221223E12,-69.98793442900194,0.18255340937612122,
1.6861877886240757E12,-69.86227451113159,0.0495778094929696,
1.6861877886260288E12,-69.89922482560772,-0.13754688592682615,
1.6861877886279822E12,-70.0203410808652,-0.25859672280951757,
1.6861877886299353E12,-70.1103729141203,-0.20964683051477076,
1.6861877886318887E12,-70.28798444525215,-0.07239129644086284,
1.6861877886338418E12,-70.33611361218853,0.09362462294806487,
1.6861877886357952E12,-70.27745468745088,0.23571908419669632,
1.6861877886377483E12,-70.12912453760201,0.2461647326011432,
1.6861877886397017E12,-69.9613455885266,0.09585914618816588,
1.6861877886416548E12,-69.8536199156785,0.01059539054656422,
1.686187788643608E12,-69.91913039514984,-0.16653008996976107,
1.6861877886455613E12,-70.05476713833417,-0.2625993544162746,
1.6861877886475144E12,-70.23430191290004,-0.18287931090879841,
1.6861877886494678E12,-70.36371215546673,-0.04131027110178023,
1.686187788651421E12,-70.32212201620602,0.13307283015496235,
1.6861877886533743E12,-70.18037897511867,0.2461273493618359,
1.6861877886553274E12,-70.01084506640971,0.20142488344678539,
1.6861877886572808E12,-69.8696068767238,0.07050424576054959,
1.686187788659234E12,-69.88395908085018,-0.11097712150941452,
1.6861877886611873E12,-70.00334441701703,-0.2537333042998648,
1.6861877886631404E12,-70.18009048860357,-0.21852044130485448,
1.6861877886650938E12,-70.33724351770601,-0.09766439386778371,
1.6861877886670469E12,-70.35190824889042,0.08250126764579878,
1.6861877886690002E12,-70.29625439201844,0.22649209281488678,
1.6861877886709534E12,-70.1505206208055,0.2369798017964453,
1.6861877886729065E12,-69.90674951554332,0.11661161963871719,
1.6861877886748599E12,-69.86018298389709,-0.047067678683523614,
1.686187788676813E12,-69.9051147586244,-0.14731138522883636,
1.6861877886787664E12,-70.02964477097727,-0.2521291987269148,
1.6861877886807195E12,-70.2144684649867,-0.13841973243588052,
1.6861877886826729E12,-70.35642787096037,-0.052247356758584426,
1.686187788684626E12,-70.33260369292144,0.11303506881711083,
1.6861877886865793E12,-70.20249627460991,0.2516058339159311,
1.6861877886885325E12,-70.0343326768477,0.20970026263884214,
1.6861877886904858E12,-69.88513706745351,0.09944536710929003,
1.686187788692439E12,-69.87669883688675,-0.08968320562541007,
1.6861877886943923E12,-69.98841523986044,-0.23195851661049458,
1.6861877886963455E12,-70.161939878695,-0.23051378938286324,
1.6861877886982988E12,-70.32560789493019,-0.1016695869669463,
1.686187788700252E12,-70.35919253339678,0.06002871797885055,
1.6861877887022053E12,-70.24995230634438,0.22374110083229798,
1.6861877887041584E12,-70.08541883056388,0.24281712692841698,
1.6861877887061116E12,-69.99731024074279,0.14442799560161027,
1.686187788708065E12,-69.86967899835257,-0.02428835832459591,
1.686187788710018E12,-69.89857573094874,-0.19090338739461177,
1.6861877887119714E12,-70.01668691834055,-0.2477301782788383,
1.6861877887139246E12,-70.28096460671797,-0.20245167088645027,
1.686187788715878E12,-70.34568174827278,-0.07494842886516298,
1.686187788717831E12,-70.34820600527993,0.09929378075580378,
1.6861877887197844E12,-70.22581560124742,0.2542821157938348,
1.6861877887217375E12,-70.05596916548043,0.23075075773730072,
1.686187788723691E12,-69.89804683900438,0.11087557667194255,
1.686187788725644E12,-69.86953475509502,-0.06051093576358281,
1.6861877887275974E12,-69.97492849527937,-0.2215763764271369,
1.6861877887295505E12,-70.1354952814772,-0.23848499951391403,
1.686187788731504E12,-70.31202498817741,-0.12389709377139985,
1.686187788733457E12,-70.36243800669169,0.04520094483881151,
1.6861877887354102E12,-70.26146772640558,0.203045940688997,
1.6861877887373635E12,-70.10705531919662,0.24797964756762067,
1.6861877887393167E12,-69.94218527581516,0.14979539409357892,
1.68618778874127E12,-69.85977429466736,-0.004572733420922388,
1.6861877887432231E12,-69.9390840457778,-0.18556437699049302,
1.6861877887451765E12,-69.99738236237157,-0.25228412712217957,
1.6861877887471296E12,-70.1699453794891,-0.1571565025556273,
1.686187788749083E12,-70.33197863880538,-0.008365794157744615,
1.6861877887510361E12,-70.35659615476085,0.07265685065586518,
1.6861877887529895E12,-70.15732409445334,0.22432156209628276,
1.6861877887549426E12,-70.06844620725865,0.23513792828011576,
1.686187788756896E12,-69.90715820477305,0.12296031050218786,
1.686187788758849E12,-69.86407755185098,-0.040618983026738324,
1.6861877887608025E12,-69.95831648011801,-0.26162546175597307,
1.6861877887627556E12,-70.1142674820742,-0.250776617351877,
1.686187788764709E12,-70.29560529735946,-0.14106915513716023,
1.686187788766662E12,-70.3661642908451,0.020949234791183186,
1.6861877887686152E12,-70.27846439025375,0.1806187937811054,
1.6861877887705686E12,-70.12522996964812,0.2516042796858626,
1.6861877887725217E12,-69.95689808808542,0.1531329026229015,
1.686187788774475E12,-69.86107248398532,0.012907152950668204,
1.6861877887764282E12,-69.92288071984618,-0.1762565318629962,
1.6861877887783816E12,-70.05409400313226,-0.26010277449366076,
1.6861877887803347E12,-70.14638564742235,-0.1883557309771794,
1.686187788782288E12,-70.36277457429264,-0.036465258355172246,
1.6861877887842412E12,-70.36226972289121,0.1279684724522175,
1.6861877887861946E12,-70.25603456370447,0.247842955870072,
1.6861877887881477E12,-70.09515525044861,0.23377327071620221,
1.686187788790101E12,-69.92860236906239,0.06527141560683304,
1.6861877887920542E12,-69.8906423517834,-0.02870189977786256,
1.6861877887940076E12,-69.94720974928654,-0.19590948797447497,
1.6861877887959607E12,-70.09491484501936,-0.2600832884296817,
1.6861877887979138E12,-70.27574780890319,-0.15964642871005047,
1.6861877887998672E12,-70.36707783147627,0.07379175477864044,
1.6861877888018203E12,-70.29139820234754,0.16529168552786042,
1.6861877888037737E12,-70.14571251222044,0.24108002009611718,
1.6861877888057268E12,-69.97182726524201,0.1707277637452675,
1.6861877888076802E12,-69.85547103748374,0.027981622951608852,
1.6861877888096333E12,-69.90992286720946,-0.151828353450987,
1.6861877888115867E12,-70.03777047448601,-0.2638554389549584,
1.6861877888135398E12,-70.21800242479671,-0.20105826450452702,
1.6861877888154932E12,-70.35541816815751,-0.0644481115761292,
1.6861877888174463E12,-70.33060832785864,0.11652000733150153,
1.6861877888193997E12,-70.26759806485153,0.24061817930808824,
1.6861877888213528E12,-70.1147482929327,0.20552740078644416,
1.6861877888233062E12,-69.88244452664588,0.08362340081804398,
1.6861877888252593E12,-69.85780297014749,-0.00526061488406701,
1.6861877888272126E12,-69.93264118027383,-0.18285835070205037,
1.6861877888291658E12,-70.07250905901302,-0.23059538975633284,
1.686187788831119E12,-70.25401515809875,-0.17110634294638655,
1.6861877888330723E12,-70.36856834513763,-0.023170768166890766,
1.6861877888350254E12,-70.30750536610746,0.14625643231682486,
1.6861877888369788E12,-70.16920012265842,0.2527837018254249,
1.686187788838932E12,-69.99610821359653,0.18972829180383444,
1.6861877888408853E12,-69.86511129519677,0.052087356825238275,
1.6861877888428384E12,-69.89732562271662,-0.12420983589277992,
1.6861877888447917E12,-70.02000451326424,-0.25641643825541327,
1.6861877888467449E12,-70.19764008493901,-0.2108432243230682,
1.6861877888486982E12,-70.35409593829662,-0.07266008426369987,
1.6861877888506514E12,-70.34520093741428,0.10155240732898747,
1.6861877888526047E12,-70.222089317094,0.23851028110949993,
1.6861877888545579E12,-70.04923781346136,0.22946941296292736,
1.6861877888565112E12,-69.96317266978892,0.10514066450497966,
1.6861877888584644E12,-69.85811549720552,-0.06573583912592862,
1.6861877888604175E12,-69.9198516114376,-0.2284246629028475,
1.6861877888623708E12,-70.14359694444302,-0.23674717807574092,
1.686187788864324E12,-70.23490292647317,-0.1871390332198739,
1.6861877888662773E12,-70.36351983112333,-0.0346862098273042,
1.6861877888682305E12,-70.32601658415992,0.2026214250916722,
1.6861877888701838E12,-70.187350732567,0.25617915601075963,
1.686187788872137E12,-70.01471559382068,0.204466592854964,
1.6861877888740903E12,-69.87520832322538,0.08708812316751237,
1.6861877888760435E12,-69.8841754457365,-0.10472625280473065,
1.6861877888779968E12,-70.0055080658803,-0.2394908452299704,
1.68618778887995E12,-70.18146079955031,-0.22275448287586733,
1.6861877888819033E12,-70.34298920746515,-0.08552943167239486,
1.6861877888838564E12,-70.35592301955894,0.07556504629383068,
1.6861877888858098E12,-70.23963891342945,0.2316797337791194,
1.686187788887763E12,-70.0777258568278,0.23318425988112715,
1.6861877888897163E12,-69.91400975950675,0.12806921208237806,
1.6861877888916694E12,-69.8675153494893,-0.052137470257323355,
1.6861877888936226E12,-69.90912952929293,-0.2096358011435078,
1.686187788895576E12,-70.0351019742213,-0.24953675764760475,
1.686187788897529E12,-70.21764181665283,-0.13466477001302002,
1.6861877888994824E12,-70.35827899276562,0.024027698956910044,
1.6861877889014355E12,-70.2741370925272,0.11713403511611498,
1.686187788903389E12,-70.21103066734838,0.23950268384251858,
1.686187788905342E12,-70.0438527318461,0.21488607425943543,
1.6861877889072954E12,-69.88746900011726,0.09218595524902905,
1.6861877889092485E12,-69.8790307695505,-0.16859819396520537,
1.686187788911202E12,-69.98711705054248,-0.2371451442614214,
1.686187788913155E12,-70.15982431091757,-0.23701515986143032,
1.6861877889151084E12,-70.32947842234115,-0.11762198378751701,
1.6861877889170615E12,-70.36015415511379,0.05400355893534684,
1.686187788919015E12,-70.2537747526695,0.20982072492173937,
1.686187788920968E12,-70.09486676393351,0.23921807666599743,
1.6861877889229211E12,-69.92968419349403,0.13265546050223476,
1.6861877889248745E12,-69.86335633556322,-0.027921044362144338,
1.6861877889268276E12,-69.95391706076269,-0.20465560962452045,
1.686187788928781E12,-70.09791991288502,-0.25595749266296786,
1.6861877889307341E12,-70.18997115174585,-0.15421814160838018,
1.6861877889326875E12,-70.37157341300329,-0.0015426383120450097,
1.6861877889346406E12,-70.35529796544289,0.16506137477243232,
1.686187788936594E12,-70.23194593969336,0.24493232179981253,
1.686187788938547E12,-70.06056090917916,0.1682932016306241,
1.6861877889405005E12,-69.89561874416893,0.10670876115197328,
1.6861877889424536E12,-69.92516457142408,-0.06229366223504854,
1.686187788944407E12,-69.9794240768064,-0.22829201269538443,
1.68618778894636E12,-70.13645690319422,-0.24852309811457612,
1.6861877889483135E12,-70.31368378563926,-0.05382045522898195,
1.6861877889502666E12,-70.36717399364797,0.040189311408286334,
1.68618778895222E12,-70.27139647063372,0.19638380678827416,
1.686187788954173E12,-70.11614264442237,0.24524695839134536,
1.6861877889561262E12,-69.94230547852979,0.14547433769964835,
1.6861877889580796E12,-69.86039934878342,-0.0041495099015246666,
1.6861877889600327E12,-69.93956485663631,-0.19137530713784595,
1.686187788961986E12,-70.07695655945419,-0.25517623138857304,
1.6861877889639392E12,-70.26507380784437,-0.17363262200195398,
1.6861877889658926E12,-70.37267927797785,-0.013327954204635754,
1.6861877889678457E12,-70.35998587131331,0.14866372069602474,
1.686187788969799E12,-70.24343731921164,0.2517514615464869,
1.6861877889717522E12,-69.99329547007427,0.1835006409623231,
1.6861877889737056E12,-69.91552431371105,0.05962364244855178,
1.6861877889756587E12,-69.86667393048691,-0.03913516397024891,
1.686187788977612E12,-69.95843668283264,-0.24822505797825636,
1.6861877889795652E12,-70.11342606307181,-0.25413885421524507,
1.6861877889815186E12,-70.29421094586979,-0.14074439315298853,
1.6861877889834717E12,-70.37068391291506,0.013832172535804215,
1.6861877889854248E12,-70.28469089087139,0.1873133963736027,
1.6861877889873782E12,-70.13542315984843,0.21914744571066788,
1.6861877889893313E12,-69.96204276427143,0.1691994506511894,
1.6861877889912847E12,-69.86576038985575,0.015599370191620531,
1.6861877889932378E12,-69.92453951730802,-0.15898648497242246,
1.6861877889951912E12,-70.05887807117439,-0.2559336415447797,
1.6861877889971443E12,-70.24379792735552,-0.1744272404395471,
1.6861877889990977E12,-70.36657298007484,-0.03404245281922144,
1.6861877890010508E12,-70.32007857005738,0.14521591486492744,
1.6861877890030042E12,-70.18299939429752,0.25661687057048355,
1.6861877890049573E12,-70.01185476921258,0.2070653198313218,
1.6861877890069106E12,-69.93266522081676,0.07462836983195266,
1.6861877890088638E12,-69.85518255096864,-0.1011818793858189,
1.6861877890108171E12,-69.99918540309096,-0.24280988536096196,
1.6861877890127703E12,-70.08101941120856,-0.2140508314713476,
1.6861877890147236E12,-70.26608351064723,-0.15487401890286884,
1.6861877890166768E12,-70.36231780397706,0.001468255366640559,
1.68618778901863E12,-70.28723918842147,0.23030982186146332,
1.6861877890205833E12,-70.14790020162664,0.25801090621057177,
1.6861877890225364E12,-69.98048186069511,0.1800654660396745,
1.6861877890244897E12,-69.85746640254654,0.042854611926353696,
1.6861877890264429E12,-69.90429738016495,-0.14142776610894667,
1.6861877890283962E12,-70.04493455627774,-0.25369068142849194,
1.6861877890303494E12,-70.21545412724663,-0.19510347427475697,
1.6861877890323027E12,-70.36123597954543,-0.0548355758580915,
1.6861877890342559E12,-70.33796473399377,0.11604527745194364,
1.6861877890362092E12,-70.20778519405347,0.24871844595713627,
1.6861877890381624E12,-70.03654440679682,0.21451825987548295,
1.6861877890401157E12,-69.88583424319835,0.09327206838460138,
1.6861877890420688E12,-69.88088189135574,-0.08616509639384795,
1.6861877890440222E12,-69.93244885593043,-0.2413877747678356,
1.6861877890459753E12,-70.07113874806628,-0.2341505347043571,
1.6861877890479285E12,-70.2560586042474,-0.10996087827761883,
1.6861877890498818E12,-70.36991461554145,0.06133798506176289,
1.686187789051835E12,-70.25341414452562,0.14837043783138207,
1.6861877890537883E12,-70.17557086653362,0.25194435322689473,
1.6861877890557415E12,-70.00238279530002,0.19110908331784524,
1.6861877890576948E12,-69.87193880938754,-0.03408127129102863,
1.686187789059648E12,-69.89999412298133,-0.12450888308675544,
1.6861877890616013E12,-70.01961986457744,-0.2545584851311363,
1.6861877890635544E12,-70.1923030844096,-0.21615598644379602,
1.6861877890655078E12,-70.34964843785545,-0.07893130807489393,
1.686187789067461E12,-70.34957631622667,0.09466596172467764,
1.6861877890694143E12,-70.22648873644933,0.23270746590161448,
1.6861877890713674E12,-70.06106576058059,0.22480537243747928,
1.6861877890733208E12,-69.90311939356161,0.10197096860044615,
1.686187789075274E12,-69.8728523500187,-0.07277637577248644,
1.6861877890772273E12,-69.9754333466808,-0.2358498020168336,
1.6861877890791804E12,-70.1399668224613,-0.24740393601217595,
1.6861877890811335E12,-70.31233751523544,-0.13271236276920115,
1.686187789083087E12,-70.36474589881252,0.030783346111619717,
1.68618778908504E12,-70.32750709782128,0.19285681641080865,
1.6861877890869934E12,-70.19374551698512,0.24115896589041033,
1.6861877890889465E12,-70.0208218917237,0.19785044760822063,
1.6861877890909E12,-69.86270724090424,0.0739256991191605,
1.686187789092853E12,-69.88924800029373,-0.11036146304926082,
1.6861877890948064E12,-70.00916222840495,-0.24870414608408895,
1.6861877890967595E12,-70.17932119122996,-0.1663640524873387,
1.686187789098713E12,-70.34080151805895,-0.10071853557655575,
1.686187789100666E12,-70.36032243891427,0.064600690274113,
1.6861877891026194E12,-70.2451201572164,0.2237565778651072,
1.6861877891045725E12,-70.07931253266086,0.230275787843373,
1.686187789106526E12,-69.91723119225874,0.12517397149757042,
1.686187789108479E12,-69.87321295816258,-0.04951610079087936,
1.6861877891104321E12,-69.96524015648049,-0.21600275781462916,
1.6861877891123855E12,-70.11710426613938,-0.2487279271945546,
1.6861877891143386E12,-70.30418777118378,-0.13903572693329602,
1.686187789116292E12,-70.37085219671553,0.017754757980162475,
1.686187789118245E12,-70.3425564776925,0.1863500696692135,
1.6861877891201985E12,-70.13359607858611,0.25049342238323397,
1.6861877891221516E12,-70.04702608351224,0.16339356682859574,
1.686187789124105E12,-69.89725350108785,0.017144503967283984,
1.686187789126058E12,-69.8797039047524,-0.07145422532313643,
1.6861877891280115E12,-69.98524188819431,-0.25535352880852985,
1.6861877891299646E12,-70.24887048191275,-0.23569389120560305,
1.686187789131918E12,-70.32625698958917,-0.11467238046541836,
1.686187789133871E12,-70.3653949934715,0.059966209393844436,
1.6861877891358245E12,-70.25723659085074,0.2225687260002542,
1.6861877891377776E12,-70.09883345351618,0.1960825111241389,
1.686187789139731E12,-69.93429997773568,0.13950653983269704,
1.686187789141684E12,-69.87032809301155,-0.014723598431011571,
1.6861877891436372E12,-69.95338816881834,-0.19420313123138946,
1.6861877891455906E12,-70.09679000736753,-0.2452088904505771,
1.6861877891475437E12,-70.28041167423069,-0.1515718322719731,
1.686187789149497E12,-70.37126088594526,0.005788829875482712,
1.6861877891514502E12,-70.29579762170286,0.17765279982985793,
1.6861877891534036E12,-70.1485252557427,0.2612315783702932,
1.6861877891553567E12,-69.97863073888986,0.18032047531527925,
1.68618778915731E12,-69.90561961002584,0.04411486455807356,
1.6861877891592632E12,-69.87073678224128,-0.1454561579239742,
1.6861877891612166E12,-70.04039089366486,-0.2524093817395089,
1.6861877891631697E12,-70.1263598751656,-0.24081192665363502,
1.686187789165123E12,-70.29949986531335,-0.12418688423929315,
1.6861877891670762E12,-70.36897703436736,0.12528213143192574,
1.6861877891690295E12,-70.27444961958523,0.20251799457279568,
1.6861877891709827E12,-70.11489253619025,0.2511812581228481,
1.6861877891729358E12,-69.94716166820069,0.15824190391542348,
1.6861877891748892E12,-69.85787509177626,0.0036094626231400486,
1.6861877891768423E12,-69.93398745067765,-0.17901570755003565,
1.6861877891787957E12,-70.07455250516166,-0.25453531391640194,
1.6861877891807488E12,-70.25978488840082,-0.17106084612196856,
1.6861877891827021E12,-70.36883279110981,-0.02019941574283839,
1.6861877891846553E12,-70.30635142004705,0.1499779302551405,
1.6861877891866086E12,-70.16564212230548,0.2485280526636577,
1.6861877891885618E12,-69.9952187135083,0.18586436858945116,
1.6861877891905151E12,-69.86701049808786,0.054490290487192804,
1.6861877891924683E12,-69.9015807988144,-0.13498228609173157,
1.6861877891944216E12,-69.95632111505522,-0.254085313176428,
1.6861877891963748E12,-70.10325691341443,-0.21278739380686232,
1.6861877891983281E12,-70.28283976906614,-0.07133094133920104,
1.6861877892002812E12,-70.34611447804544,0.09400904179230225,
1.6861877892022344E12,-70.2855563504167,0.1782652256187835,
1.6861877892041877E12,-70.14037551169103,0.24938201028879492,
1.6861877892061409E12,-69.96798077837397,0.11110569371724445,
1.6861877892080942E12,-69.86203410570234,0.02240310056862605,
1.6861877892100474E12,-69.92410678753537,-0.15631751887105008,
1.6861877892120007E12,-70.0507042865798,-0.25985303299125917,
1.6861877892139539E12,-70.23735506185155,-0.17787047311480464,
1.6861877892159072E12,-70.36763076396355,-0.046184656682236716,
1.6861877892178604E12,-70.3263771923038,0.12862832640894284,
1.6861877892198137E12,-70.19398592241437,0.2437287845462414,
1.6861877892217668E12,-70.01841783743117,0.20470080758344367,
1.6861877892237202E12,-69.8813146211284,0.05598578090196295,
1.6861877892256733E12,-69.88968073006639,-0.10641626739115939,
1.6861877892276267E12,-70.00526766045105,-0.26033220552897535,
1.6861877892295798E12,-70.17665269096526,-0.22873318016249142,
1.6861877892315332E12,-70.2702425245733,-0.10663181789047495,
1.6861877892334863E12,-70.36712591256212,0.07303308562273494,
1.6861877892354395E12,-70.29998067617186,0.2158366284293891,
1.6861877892373928E12,-70.16073785154873,0.22918735305284554,
1.686187789239346E12,-69.91191823227226,0.17000282281010637,
1.6861877892412993E12,-69.86698645754494,0.039557303033184284,
1.6861877892432524E12,-69.90595617762679,-0.15257346829314075,
1.6861877892452058E12,-70.03296236590096,-0.2584713542281539,
1.686187789247159E12,-70.21562241104711,-0.14865958759834594,
1.6861877892491123E12,-70.35433634372588,-0.06327906715069229,
1.6861877892510654E12,-70.33815705833717,0.10385400607592135,
1.6861877892530188E12,-70.2103815726894,0.2412795738515847,
1.686187789254972E12,-70.04000624497806,0.2079085218734167,
1.6861877892569253E12,-69.88470433768086,0.09457635118082179,
1.6861877892588784E12,-69.87470347182395,-0.08258473069280049,
1.6861877892608318E12,-69.98812675334534,-0.23445200292982693,
1.686187789262785E12,-70.1552806483047,-0.23792975590460563,
1.686187789264738E12,-70.32589638144529,-0.11029975900059838,
1.6861877892666914E12,-70.36147638497468,0.05258086008022255,
1.6861877892686445E12,-70.3156310696162,0.21402349282378857,
1.686187789270598E12,-70.09287139887071,0.24282318624563465,
1.686187789272551E12,-70.00560422805201,0.14259424765951267,
1.6861877892745044E12,-69.87376589064986,-0.022276917612050945,
1.6861877892764575E12,-69.89831128497656,-0.19352276867441767,
1.686187789278411E12,-70.01428286404803,-0.24509828085670632,
1.686187789280364E12,-70.28202239060668,-0.20802813672047954,
1.6861877892823174E12,-70.34529709958598,-0.07223700778971179,
1.6861877892842705E12,-70.34640296456054,0.09917630136362444,
1.6861877892862239E12,-70.22932552051451,0.2605275684869285,
1.686187789288177E12,-70.06258031478488,0.23110618043372988,
1.6861877892901304E12,-69.9043454612508,0.115630389727731,
1.6861877892920835E12,-69.87386205282156,-0.05878760755836157,
1.6861877892940369E12,-69.97370242759018,-0.21464845242359673,
1.68618778929599E12,-70.1347259841036,-0.23979371186351392,
1.686187789297943E12,-70.30923628519808,-0.11782766891396716,
1.6861877892998965E12,-70.36921743979661,0.041024296916334614,
1.6861877893018496E12,-70.27125222737617,0.21096102144693643,
1.686187789303803E12,-70.11433960370297,0.24674650212691754,
1.686187789305756E12,-70.03000537912115,0.1635985371565833,
1.6861877893077095E12,-69.88410332410773,0.0022988593880881925,
1.6861877893096626E12,-69.93997354586604,-0.17496331063584206,
1.686187789311616E12,-70.00122884923961,-0.2521729161534023,
1.686187789313569E12,-70.17018578491836,-0.21320855167373914,
1.6861877893155225E12,-70.3292380169119,-0.01579253335858218,
1.6861877893174756E12,-70.35517776272826,0.08218654577987711,
1.686187789319429E12,-70.24766845476648,0.21954161611457448,
1.686187789321382E12,-70.08349558712986,0.2491230880197706,
1.6861877893233354E12,-69.9224239495306,0.13043462942741404,
1.6861877893252886E12,-69.87092910658468,-0.1206656856050624,
1.6861877893272417E12,-69.95913385857747,-0.2117835150724,
1.686187789329195E12,-70.11066140063541,-0.23802996919226938,
1.6861877893311482E12,-70.28827293176725,-0.14402208581545303,
1.6861877893331016E12,-70.37097239943016,0.027497234662842165,
1.6861877893350547E12,-70.28615736398983,0.17762959842317677,
1.686187789337008E12,-70.13049484854875,0.25479985302679187,
1.6861877893389612E12,-69.96228316970068,0.15726136475493516,
1.6861877893409146E12,-69.86328421393445,0.026996182833808138,
1.6861877893428677E12,-69.92302496310373,-0.17100554743423987,
1.686187789344821E12,-69.98055398232388,-0.24892304206974852,
1.6861877893467742E12,-70.14912626931583,-0.18756622513471316,
1.6861877893487275E12,-70.36647681790313,-0.027708410948440378,
1.6861877893506807E12,-70.36284669592142,0.12852528107847533,
1.686187789352634E12,-70.25901559102721,0.21363783933686115,
1.6861877893545872E12,-70.10260781875544,0.23547130940937902,
1.6861877893565405E12,-69.9340355317635,0.07730234498345298,
1.6861877893584937E12,-69.86326017339152,-0.020946910072180268,
1.6861877893604468E12,-69.94901279000594,-0.18334336613704372,
1.6861877893624001E12,-70.09263099344146,-0.26418454372807987,
1.6861877893643533E12,-70.27608437650414,-0.15977256545095578,
1.6861877893663066E12,-70.37279948069248,-0.010528848589687213,
1.6861877893682598E12,-70.29812955436661,0.1661189872782699,
1.6861877893702131E12,-70.14965516126018,0.2462626941252484,
1.6861877893721663E12,-69.9844725908207,0.1780010943885304,
1.6861877893741196E12,-69.86890970097896,0.029567772389382824,
1.6861877893760728E12,-69.91434632710771,-0.14896712874765486,
1.6861877893780261E12,-70.03820320425866,-0.26452153037300896,
1.6861877893799792E12,-70.21867555999862,-0.19657047084406368,
1.6861877893819326E12,-70.30055764920206,-0.06093716527256847,
1.6861877893838857E12,-70.37267927797785,0.11366676736803677,
1.686187789385839E12,-70.27644498464802,0.2382789847570548,
1.6861877893877922E12,-70.12253742884049,0.20655283358186222,
1.6861877893897454E12,-69.88669970274366,0.1497267538949441,
1.6861877893916987E12,-69.863428457192,0.004266796484365749,
1.6861877893936519E12,-69.93838687003297,-0.1758803816903459,
1.6861877893956052E12,-70.07450442407581,-0.2390632420327614,
1.6861877893975583E12,-70.25394303646998,-0.17755581319010152,
1.6861877893995117E12,-70.36943380468294,-0.0336664151852672,
1.6861877894014648E12,-70.31214519089204,0.14116478298045024,
1.6861877894034182E12,-70.17576319087702,0.24445426908434106,
1.6861877894053713E12,-70.00110864652498,0.18626063633461798,
1.6861877894073247E12,-69.8741745798796,0.05567526160555878,
1.6861877894092778E12,-69.89970563646622,-0.12571541942532083,
1.6861877894112312E12,-70.02147098638268,-0.2612571800567437,
1.6861877894131843E12,-70.19843342285554,-0.21343976856082297,
1.6861877894151377E12,-70.35029753251443,-0.08752378275576714,
1.6861877894170908E12,-70.35344684363764,0.09581949684092504,
1.6861877894190442E12,-70.22821965553995,0.22532269460975698,
1.6861877894209973E12,-70.1467222150233,0.22583672010210487,
1.6861877894229504E12,-69.97387071139066,0.10162427911324358,
1.6861877894249038E12,-69.8657123087699,-0.059894229053180155,
1.686187789426857E12,-69.91802453017527,-0.16302254404411398,
1.6861877894288103E12,-70.1354952814772,-0.24918228960554523,
1.6861877894307634E12,-70.23187381806459,-0.192364519242894,
1.6861877894327168E12,-70.36604408813048,-0.04167978031476565,
1.68618778943467E12,-70.33017559808599,0.19615644323460804,
1.6861877894366233E12,-70.1961014901918,0.2531016240609562,
1.6861877894385764E12,-70.02810617623005,0.20263277646842856,
1.6861877894405298E12,-69.88463221605208,0.08805872124363279,
1.686187789442483E12,-69.89069043286925,-0.10647077191694418,
1.6861877894444363E12,-70.00598887673881,-0.23249046171589902,
1.6861877894463894E12,-70.17499389350341,-0.2284026195790408,
1.6861877894483428E12,-70.3401764639429,-0.08782967799284137,
1.686187789450296E12,-70.36075516868692,0.07038068089669444,
1.686187789452249E12,-70.24495187341593,0.23842426709437076,
1.6861877894542024E12,-70.08176466803924,0.23633262404833233,
1.6861877894561555E12,-69.9955072000234,0.13543893906516902,
1.686187789458109E12,-69.86840484957753,-0.04359319137260983,
1.686187789460062E12,-69.90708608314428,-0.20204229127246942,
1.6861877894620154E12,-70.02942840609094,-0.24915064426779845,
1.6861877894639685E12,-70.2106700592045,-0.19164484940301996,
1.6861877894659219E12,-70.36087537140155,0.02006376235268321,
1.686187789467875E12,-70.28267148526567,0.11835181474043253,
1.6861877894698284E12,-70.21586281647636,0.23973408439961108,
1.6861877894717815E12,-70.04534324550747,0.2254483906336948,
1.6861877894737349E12,-69.89590723068403,0.09972299024936677,
1.686187789475688E12,-69.87910289117927,-0.1586255504778434,
1.6861877894776414E12,-69.98565057742404,-0.23085606993975838,
1.6861877894795945E12,-70.15374205355748,-0.22353141280720987,
1.6861877894815479E12,-70.32293939466548,-0.11452863936484946,
1.686187789483501E12,-70.36416892578231,0.05961164362411303,
1.686187789485454E12,-70.25762123953754,0.21072263689461765,
1.6861877894874075E12,-70.09924214274591,0.24750824571387284,
1.6861877894893606E12,-69.93463654533663,0.1415508879633012,
1.686187789491314E12,-69.87342932304891,-0.014302173463826975,
1.686187789493267E12,-69.95158512809894,-0.19388022295134108,
1.6861877894952205E12,-70.01353760721734,-0.24984265168143788,
1.6861877894971736E12,-70.28197430952083,-0.1558676869029397,
1.686187789499127E12,-70.3476049917068,0.0039095932210204696,
1.68618778950108E12,-70.35467291132683,0.08534508496685116,
1.6861877895030334E12,-70.2352154535312,0.23297219859787446,
1.6861877895049866E12,-70.06873469377375,0.17529446318554842,
1.68618778950694E12,-69.90982670503776,0.11465543344714511,
1.686187789508893E12,-69.87253982296068,-0.0550322612285495,
1.6861877895108464E12,-69.97740467120067,-0.21453081246612415,
1.6861877895127996E12,-70.1334037542427,-0.24015308917622985,
1.6861877895147527E12,-70.30827466348107,-0.13409266285748628,
1.686187789516706E12,-70.36969825065512,0.031403139880330805,
1.6861877895186592E12,-70.27269465995168,0.19009563408963914,
1.6861877895206125E12,-70.11835437437149,0.24386242641352465,
1.6861877895225657E12,-69.94850793860451,0.15243124985027826,
1.686187789524519E12,-69.86475068705289,0.00405577574976523,
1.6861877895264722E12,-69.93617514008385,-0.17753690203627406,
1.6861877895284255E12,-70.07421593756071,-0.2562846861373508,
1.6861877895303787E12,-70.25752507736584,-0.17610518238967687,
1.686187789532332E12,-70.3308487332879,-0.015782648620427043,
1.6861877895342852E12,-70.35770201973541,0.14724529446891105,
1.6861877895362385E12,-70.25045715774581,0.25151177480317755,
1.6861877895381917E12,-69.99704579477061,0.18614970359467434,
1.686187789540145E12,-69.92384234156319,0.13438731644327812,
1.6861877895420981E12,-69.86559210605527,-0.040130201959319586,
1.6861877895440515E12,-69.95860496663312,-0.2513287980470491,
1.6861877895460046E12,-70.10753613005512,-0.25385265006788854,
1.6861877895479578E12,-70.29190305374897,-0.14360208136925928,
1.6861877895499111E12,-70.37058775074335,0.0065579703877727095,
1.6861877895518643E12,-70.28425816109873,0.18169703063926002,
1.6861877895538176E12,-70.1391975250877,0.24624421463588603,
1.6861877895557708E12,-69.96990402180799,0.167085004008623,
1.686187789557724E12,-69.86564018714112,0.01736857412038847,
1.6861877895596772E12,-69.92117384129848,-0.15958366108111754,
1.6861877895616306E12,-70.05729139534132,-0.2621613806900336,
1.6861877895635837E12,-70.23862921062658,-0.1811974268112402,
1.686187789565537E12,-70.36710187201919,-0.03825165555352458,
1.6861877895674902E12,-70.32673780044767,0.13290867708488063,
1.6861877895694436E12,-70.26389582124104,0.243365953290815,
1.6861877895713967E12,-70.10878623828724,0.2034893876900572,
1.68618778957335E12,-69.94163234332788,0.07502811280555147,
1.6861877895753032E12,-69.86496705193922,-0.10039328160554793,
1.6861877895772563E12,-70.00755151202895,-0.18631298260277,
1.6861877895792097E12,-70.0890489525456,-0.2539719989249505,
1.6861877895811628E12,-70.27360820058284,-0.1611575087434326,
1.6861877895831162E12,-70.37477080521235,-0.0034414159994971116,
1.6861877895850693E12,-70.3042118117267,0.2296293224204995,
1.6861877895870227E12,-70.16285341932615,0.25600459193634445,
1.6861877895889758E12,-69.98966534809256,0.17894996369125574,
1.6861877895909292E12,-69.87104930929931,0.045198729653229575,
1.6861877895928823E12,-69.91124509707035,-0.13566485334153813,
1.6861877895948357E12,-70.03644824462512,-0.24954140416416493,
1.6861877895967888E12,-70.22067092506141,-0.19302375418014237,
1.6861877895987422E12,-70.36176487148978,-0.055774759934859724,
1.6861877896006953E12,-70.33940716656929,0.11872783858954312,
1.6861877896026487E12,-70.21699272199385,0.24580619574710644,
1.6861877896046018E12,-70.04435758324753,0.2206902771446442,
1.6861877896065552E12,-69.89258963576034,0.09839124265592687,
1.6861877896085083E12,-69.86556806551235,-0.07765597169880938,
1.6861877896104614E12,-69.931944004529,-0.23066708126079566,
1.6861877896124148E12,-70.06693165305435,-0.2324811267863843,
1.686187789614368E12,-70.25201979303596,-0.108931114428228,
1.6861877896163213E12,-70.37068391291506,-0.02576958855243402,
1.6861877896182744E12,-70.25461617167188,0.14497436025119229,
1.6861877896202278E12,-70.18230221855269,0.2550256972887134,
1.686187789622181E12,-70.00954687709175,0.20028966766118098,
1.6861877896241343E12,-69.8744630663947,-0.015164765151920705,
1.6861877896260874E12,-69.89516197385335,-0.11415763944660039,
1.6861877896280408E12,-70.01687924268396,-0.24629653388653566,
1.686187789629994E12,-70.19605340910594,-0.21309891230799646,
1.6861877896319473E12,-70.35061005957246,-0.0770870878594288,
1.6861877896339004E12,-70.3496965189413,0.08831870518306634,
1.6861877896358538E12,-70.22761864196681,0.23353012940232828,
1.686187789637807E12,-70.05957524691922,0.22510120284047389,
1.68618778963976E12,-69.90307131247576,0.11123865150858732,
1.6861877896417134E12,-69.87537660702586,-0.059785418403593055,
1.6861877896436665E12,-69.9205247466395,-0.22392695166794102,
1.6861877896456199E12,-70.04731457002734,-0.2460492282099303,
1.686187789647573E12,-70.31031810962972,-0.1296830847927972,
1.6861877896495264E12,-70.36755864233477,0.03254610628865917,
1.6861877896514795E12,-70.3332287470375,0.11881679317451563,
1.6861877896534329E12,-70.20187122049386,0.24563880888551726,
1.686187789655386E12,-70.02875527088904,0.20636345079141993,
1.6861877896573394E12,-69.88278109424684,0.08449000585584043,
1.6861877896592925E12,-69.88528131071106,-0.09799560746020966,
1.6861877896612458E12,-69.99795933540177,-0.24693407010958893,
1.686187789663199E12,-70.17463328535953,-0.17065023981550406,
1.6861877896651523E12,-70.33676270684751,-0.10175245047870836,
1.6861877896671055E12,-70.35782222245004,0.066161277142739,
1.6861877896690588E12,-70.24572117078954,0.21850794454156014,
1.686187789671012E12,-70.08421680341762,0.2320280417541953,
1.686187789672965E12,-69.91739947605922,0.1291872855869341,
1.6861877896749185E12,-69.8660969574567,-0.04284170255107305,
1.6861877896768716E12,-69.95776354763073,-0.20758393726429175,
1.686187789678825E12,-70.11373859012984,-0.2533616413751612,
1.686187789680778E12,-70.29098951311781,-0.14167989460639074,
1.6861877896827314E12,-70.35121107314559,0.0115995503889264,
1.6861877896846846E12,-70.3426526398642,0.18193021916794266,
1.686187789686638E12,-70.13499043007577,0.2375608985125904,
1.686187789688591E12,-70.04918973237551,0.16561797071627882,
1.6861877896905444E12,-69.89165205458626,0.09770091280023027,
1.6861877896924976E12,-69.87838167489151,-0.1641496313559455,
1.686187789694451E12,-69.9822849014145,-0.23603164141663552,
1.686187789696404E12,-70.14773191782616,-0.23626255367923032,
1.6861877896983574E12,-70.31673693459076,-0.12323194381631489,
1.6861877897003105E12,-70.36491418261299,0.05020935535766436,
1.6861877897022637E12,-70.2609147939183,0.20263346834287557,
1.686187789704217E12,-70.10205488626816,0.24687527549820512,
1.6861877897061702E12,-69.93540584271024,0.13559233150060376,
1.6861877897081235E12,-69.86378906533588,-0.013584959396427738,
1.6861877897100767E12,-69.94627216811246,-0.19468421698662944,
1.68618778971203E12,-70.09234250692636,-0.24954220452285547,
1.6861877897139832E12,-70.27666134953435,-0.15845575622192354,
1.6861877897159365E12,-70.37217442657642,0.002076930700802226,
1.6861877897178896E12,-70.29591782441749,0.16643263836757172,
1.686187789719843E12,-70.23401342638493,0.25589970860969224,
1.6861877897217961E12,-70.06654700436755,0.17951673766733678,
1.6861877897237495E12,-69.9118701511864,0.046603312033742454,
1.6861877897257026E12,-69.91174994847178,-0.14103834632947085,
1.686187789727656E12,-69.96956745420704,-0.20990642157909567,
1.6861877897296091E12,-70.12674452385241,-0.2403865600831468,
1.6861877897315623E12,-70.30317806838092,-0.1294364358836716,
1.6861877897335156E12,-70.37080411562968,0.12111732984803021,
1.6861877897354688E12,-70.27618053867585,0.19720864588594053,
1.686187789737422E12,-70.12208065852491,0.2534168527571685,
1.6861877897393752E12,-69.9543017094495,0.16241968073921118,
1.6861877897413286E12,-69.86112056507118,0.01229106640320661,
1.6861877897432817E12,-69.93324219384697,-0.17097409291998544,
1.686187789745235E12,-70.06873469377375,-0.2499992783498029,
1.6861877897471882E12,-70.25430364461386,-0.16351027598101797,
1.6861877897491416E12,-70.36945784522587,-0.017937025369538062,
1.6861877897510947E12,-70.31055851505897,0.1505587947400161,
1.686187789753048E12,-70.17881633982853,0.25616958108134563,
1.6861877897550012E12,-70.00082016000988,0.19888065823262066,
1.6861877897569546E12,-69.8673230251459,0.06491314374400207,
1.6861877897589077E12,-69.86354865990663,-0.11912285082839787,
1.686187789760861E12,-69.95026289823805,-0.24468390654813876,
1.6861877897628142E12,-70.10412237295974,-0.20793064974398684,
1.6861877897647673E12,-70.281277133776,-0.14146562622731768,
1.6861877897667207E12,-70.34647508618932,0.009166129360846719,
1.6861877897686738E12,-70.28750363439364,0.1805976897361688,
1.6861877897706272E12,-70.14150541720852,0.25197873123044723,
1.6861877897725803E12,-69.97072140026745,0.11426499843166714,
1.6861877897745337E12,-69.86037530824049,0.026752114445542353,
1.6861877897764868E12,-69.9182408950616,-0.15240804494800822,
1.6861877897784402E12,-70.04606446179523,-0.260228512299639,
1.6861877897803933E12,-70.23088815580465,-0.18380893221248454,
1.6861877897823467E12,-70.36017819565672,-0.04965036635030277,
1.6861877897842998E12,-70.32570405710189,0.1297909585683332,
1.6861877897862532E12,-70.1923992465813,0.24077521946690636,
1.6861877897882063E12,-70.02202391886996,0.20715481702994976,
1.6861877897901597E12,-69.87780470186131,0.07400579203989512,
1.6861877897921128E12,-69.88662758111488,-0.10339145998182887,
1.686187789794066E12,-69.94333922187558,-0.25262208629530697,
1.6861877897960193E12,-70.17131569043585,-0.22326275910028381,
1.6861877897979724E12,-70.26562674033165,-0.10905031003275117,
1.6861877897999258E12,-70.37133300757404,0.07068636345478128,
1.686187789801879E12,-70.30534171724419,0.21431158343162016,
1.6861877898038323E12,-70.16417564918704,0.24845551292907175,
1.6861877898057854E12,-69.91504350285254,0.17411741964328395,
1.6861877898077388E12,-69.8680923225195,0.046191183375445366,
1.686187789809692E12,-69.90328767736209,-0.14656276069802363,
1.6861877898116453E12,-70.02315382438745,-0.2583103733951804,
1.6861877898135984E12,-70.20874681577048,-0.1495041667810212,
1.6861877898155518E12,-70.35472099241268,-0.07050474807093357,
1.686187789817505E12,-70.34015242339997,0.09549159358802686,
1.6861877898194583E12,-70.21134319440641,0.23694235423746518,
1.6861877898214114E12,-70.03529429856471,0.2100739678612436,
1.6861877898233647E12,-69.88362251324922,0.09431822053892558,
1.6861877898253179E12,-69.86917414695114,-0.09036057400567475,
1.686187789827271E12,-69.97627476568319,-0.23944558406351424,
1.6861877898292244E12,-70.14181794426655,-0.2433087715943192,
1.6861877898311775E12,-70.23689829153597,-0.11632909611969336,
1.6861877898331309E12,-70.3564519115033,0.047715340933559926,
1.686187789835084E12,-70.24913492788492,0.20847789058943675,
1.6861877898370374E12,-70.1784076505988,0.23298808620791786,
1.6861877898389905E12,-70.00642160651147,0.19139115361633113,
1.6861877898409438E12,-69.86991940378182,0.062255255305409124,
1.686187789842897E12,-69.88792577043284,-0.19795711693724719,
1.6861877898448503E12,-70.0066379713978,-0.25669391602373576,
1.6861877898468035E12,-70.18194161040881,-0.2203718744917582,
1.6861877898487568E12,-70.34068131534433,-0.08966227061133726,
1.68618778985071E12,-70.34597023478788,0.08462273219106263,
1.6861877898526633E12,-70.23043138548907,0.23078326188071974,
1.6861877898546165E12,-70.0636380986736,0.2286207583714179,
1.6861877898565696E12,-69.90088362306956,0.11693700777816667,
1.686187789858523E12,-69.8723715391602,-0.060221853963637495,
1.686187789860476E12,-69.96889431900513,-0.22058750286803744,
1.6861877898624294E12,-70.12715321308214,-0.2429286217159682,
1.6861877898643826E12,-70.3065918254763,-0.1283451762314119,
1.686187789866336E12,-70.36445741229741,0.03112311871512959,
1.686187789868289E12,-70.26651624041989,0.20107812885231013,
1.6861877898702424E12,-70.1987699904565,0.24964732479660964,
1.6861877898721956E12,-70.03178437929762,0.16169843315838692,
1.686187789874149E12,-69.88203583741615,0.0023642398259744644,
1.686187789876102E12,-69.93254501810213,-0.17067550107225188,
1.6861877898780554E12,-69.99269445650114,-0.23479810310199883,
1.6861877898800085E12,-70.16314190584126,-0.22163181512122562,
1.686187789881962E12,-70.3318103550049,-0.01831848663192838,
1.686187789883915E12,-70.35787030353589,0.0723806385841659,
1.6861877898858684E12,-70.2464423870773,0.22522385090322036,
1.6861877898878215E12,-70.0829666951855,0.2435692170634078,
1.6861877898897747E12,-69.91696674628656,0.1347348361948148,
1.686187789891728E12,-69.86003874063954,-0.025580487833257025,
1.6861877898936812E12,-69.95081583072533,-0.19963940141348663,
1.6861877898956345E12,-70.10455510273239,-0.24275156306816129,
1.6861877898975876E12,-70.28776808036582,-0.14381215031301148,
1.686187789899541E12,-70.36888087219566,0.019921844942299746,
1.6861877899014941E12,-70.28238299875056,0.1816219364623164,
1.6861877899034475E12,-70.13583184907816,0.25779914541665416,
1.6861877899054006E12,-69.96564884571022,0.17059387656607425,
1.686187789907354E12,-69.89698905511567,0.02865299037842905,
1.6861877899093071E12,-69.8723715391602,-0.16004834014742098,
1.6861877899112605E12,-69.97567375211005,-0.2519718164950977,
1.6861877899132136E12,-70.14013510626178,-0.17965000740195006,
1.686187789915167E12,-70.36416892578231,-0.11479391063121402,
1.68618778991712E12,-70.36332750677992,0.04928643980410182,
1.6861877899190732E12,-70.25980892894374,0.20619220316040748,
1.6861877899210266E12,-70.10215104843986,0.20356697229635687,
1.6861877899229797E12,-69.94204103255761,0.14718620322897505,
1.686187789924933E12,-69.86328421393445,-0.012014379954277054,
1.6861877899268862E12,-69.9405985999821,-0.18785555482020713,
1.6861877899288396E12,-70.08710166856865,-0.25671448466434366,
1.6861877899307927E12,-70.26726149725057,-0.16237700975661404,
1.686187789932746E12,-70.37041946694288,-0.008665303195280288,
1.6861877899346992E12,-70.30096633843179,0.15793298366576086,
1.6861877899366526E12,-70.15999259471805,0.2516085448459042,
1.6861877899386057E12,-69.9883671587746,0.17741373136711056,
1.686187789940559E12,-69.86383714642173,0.0433187650503026,
1.6861877899425122E12,-69.90650911011407,-0.1451957599645335,
1.6861877899444656E12,-70.02817829785883,-0.2580471911887127,
1.6861877899464187E12,-70.1191236717451,-0.20292847384909246,
1.686187789948372E12,-70.30005279780063,-0.0679957814127158,
1.6861877899503252E12,-70.36743843962014,0.10543761247483392,
1.6861877899522783E12,-70.27541124130224,0.24297583348977383,
1.6861877899542317E12,-70.04067938017997,0.24147206334650792,
1.6861877899561848E12,-69.9572586962293,0.15959318066179498,
1.6861877899581382E12,-69.86138501104335,-1.8027838971817513E-4,
1.6861877899600913E12,-69.93158339638512,-0.17177942788054681,
1.6861877899620447E12,-70.06481608527693,-0.24343678565246035,
1.6861877899639978E12,-70.25014463068779,-0.17827995934956792,
1.6861877899659512E12,-70.36892895328151,-0.03918713016011469,
1.6861877899679043E12,-70.31676097513369,0.13830694045522027,
1.6861877899698577E12,-70.17903270471486,0.24140815630221377,
1.6861877899718108E12,-70.0067341335695,0.19066028332113985,
1.6861877899737642E12,-69.86845293066338,0.05536476485229231,
1.6861877899757173E12,-69.89458500082314,-0.12205910222097535,
1.6861877899776707E12,-70.01151820161162,-0.2589315708680923,
1.6861877899796238E12,-70.19050004369021,-0.21690595713014224,
1.686187789981577E12,-70.27608437650414,-0.09117564599783892,
1.6861877899835303E12,-70.3685443045947,0.08677046048194191,
1.6861877899854834E12,-70.22785904739607,0.2235412592164487,
1.6861877899874368E12,-70.14318825521329,0.2221776753544073,
1.68618778998939E12,-69.97322161673168,0.15825994217184824,
1.6861877899913433E12,-69.86299572741935,-0.06249441985022815,
1.6861877899932964E12,-69.9164378543422,-0.16365658958810286,
1.6861877899952498E12,-70.04471819139141,-0.26249590260516015,
1.686187789997203E12,-70.22742631762341,-0.20289368317285086,
1.6861877899991562E12,-70.3631111418936,-0.05532413197157501,
1.6861877900011094E12,-70.33423844984036,0.1879803463251571,
1.6861877900030627E12,-70.20141445017828,0.24077461638975556,
1.6861877900050159E12,-70.02923608174754,0.20040271004812882,
1.6861877900069692E12,-69.8816992698152,0.08573540456654104,
1.6861877900089224E12,-69.88412736465065,-0.10430451178484644,
1.6861877900108757E12,-69.99776701105837,-0.24579389573119934,
1.6861877900128289E12,-70.16703647379515,-0.2348769004541718,
1.686187790014782E12,-70.33455097689838,-0.10235286237296434,
1.6861877900167354E12,-70.35601918173064,0.07089088189236643,
1.6861877900186885E12,-70.24331711649701,0.2254653426660192,
1.6861877900206418E12,-70.1673730413961,0.2379898721910021,
1.686187790022595E12,-69.99206940238508,0.13295151868574515,
1.6861877900245483E12,-69.86475068705289,-0.03361573677777352,
1.6861877900265015E12,-69.9003547311252,-0.12748899589176782,
1.6861877900284548E12,-70.02459625696297,-0.2471653151393172,
1.686187790030408E12,-70.2038185044708,-0.13949816938172246,
1.6861877900323613E12,-70.34611447804544,-0.0680078047680081,
1.6861877900343145E12,-70.34231607226324,0.10348203295948064,
1.6861877900362678E12,-70.21934869520052,0.241600729329717,
1.686187790038221E12,-70.04409313727535,0.2222742058400343,
1.6861877900401743E12,-69.89109912209898,0.10598399331926421,
1.6861877900421274E12,-69.87518428268245,-0.0714297190771379,
1.6861877900440806E12,-69.98062610395266,-0.22700364264972708,
1.686187790046034E12,-70.14314017412744,-0.23514737253204973,
1.686187790047987E12,-70.31466944789919,-0.11577328394062288,
1.6861877900499404E12,-70.36068304705815,0.04747616277883718,
1.6861877900518936E12,-70.25598648261862,0.2146499577773929,
1.686187790053847E12,-70.09635727759488,0.23899501901654382,
1.6861877900558E12,-69.93172763964267,0.14738145075917083,
1.6861877900577534E12,-69.87068870115543,-0.015591435944248628,
1.6861877900597065E12,-69.88470433768086,-0.189731640655425,
1.68618779006166E12,-70.0045464441633,-0.2527719251759985,
1.686187790063613E12,-70.26762210539445,-0.14924862585661755,
1.6861877900655664E12,-70.33714735553431,-0.08704255397217217,
1.6861877900675195E12,-70.3495041945979,0.08570037875525388,
1.686187790069473E12,-70.23319604792547,0.22964617215443145,
1.686187790071426E12,-70.0659219502515,0.18495967965444665,
1.6861877900733794E12,-69.90814386703299,0.1188548951128105,
1.6861877900753325E12,-69.86525553845432,-0.045814049792972864,
1.6861877900772856E12,-69.96492762942246,-0.2204745245686977,
1.686187790079239E12,-70.12114307735082,-0.24090824177215184,
1.6861877900811921E12,-70.29949986531335,-0.1353889142144092,
1.6861877900831455E12,-70.36594792595878,0.03345474453538225,
1.6861877900850986E12,-70.27353607895407,0.1937518207289798,
1.686187790087052E12,-70.12015741509089,0.25568670689787465,
1.6861877900890051E12,-69.95057542529608,0.15953467260560872,
1.6861877900909585E12,-69.86287552470472,0.010343219030881722,
1.6861877900929116E12,-69.93187188290023,-0.17779670053280472,
1.686187790094865E12,-70.06503245016326,-0.25491270193588167,
1.686187790096818E12,-70.15701156739532,-0.17277838421242298,
1.6861877900987715E12,-70.32810811139441,-0.022866884242732043,
1.6861877901007246E12,-70.36275053374972,0.14362378514279836,
1.686187790102678E12,-70.24735592770845,0.21492985828442476,
1.686187790104631E12,-70.00310401158778,0.23662416957181945,
1.6861877901065842E12,-69.92420294970707,0.13518573236650328,
1.6861877901085376E12,-69.86429391673731,-0.03134359165058304,
1.6861877901104907E12,-69.95466231759337,-0.25435379125630675,
1.686187790112444E12,-70.10215104843986,-0.2546528318202263,
1.6861877901143972E12,-70.28050783640239,-0.15099688205280862,
1.6861877901163506E12,-70.36609216921633,0.006504681281156428,
1.6861877901183037E12,-70.2927925538372,0.16583225615799413,
1.686187790120257E12,-70.14100056580709,0.24545619660990084,
1.6861877901222102E12,-69.96516803485171,0.16641992641497597,
1.6861877901241636E12,-69.85482194282476,0.0218287202391245,
1.6861877901261167E12,-69.92064494935413,-0.16099680207145375,
1.68618779012807E12,-70.04938205671891,-0.2611953358912626,
1.6861877901300232E12,-70.22973420974424,-0.19534013620949722,
1.6861877901319766E12,-70.30974113659951,-0.05037590931638402,
1.6861877901339297E12,-70.32986307102796,0.11674687307642555,
1.686187790135883E12,-70.26656432150574,0.24626246531116527,
1.6861877901378362E12,-70.10359348101538,0.1982265929077182,
1.6861877901397893E12,-69.93903596469195,0.08248363008267603,
1.6861877901417427E12,-69.86251491656084,-0.014627742086492465,
1.6861877901436958E12,-69.9986565111466,-0.1887619220087521,
1.6861877901456492E12,-70.07921637048916,-0.26304157842497083,
1.6861877901476023E12,-70.26646815933404,-0.16343911144779033,
1.6861877901495557E12,-70.36775096667817,0.06375792205520957,
1.6861877901515088E12,-70.30269725752241,0.15543084508396285,
1.6861877901534622E12,-70.16141098675064,0.2432275830125021,
1.6861877901554153E12,-69.98490532059336,0.1818420296502176,
1.6861877901573687E12,-69.86549594388357,0.040098917326848116,
1.6861877901593218E12,-69.90136443392807,-0.13598310468221808,
1.6861877901612751E12,-70.02399524338983,-0.26359484790268817,
1.6861877901632283E12,-70.20526093704632,-0.2018816262293323,
1.6861877901651816E12,-70.34993692437055,-0.07317638458378234,
1.6861877901671348E12,-70.33861382865275,0.1088254269949132,
1.686187790169088E12,-70.2788971200264,0.23801157729112027,
1.6861877901710413E12,-70.12405198304478,0.22159702992141683,
1.6861877901729944E12,-69.8881661758621,0.09562050322014726,
1.6861877901749478E12,-69.85994257846784,-0.0737729126407522,
1.686187790176901E12,-69.92521265250993,-0.16822724932575006,
1.6861877901788542E12,-70.05712311154085,-0.25136757366181417,
1.6861877901808074E12,-70.24074477840401,-0.11926200590755198,
1.6861877901827607E12,-70.36224568234829,-0.02567417472824352,
1.6861877901847139E12,-70.31418863704069,0.13611356642875055,
1.6861877901866672E12,-70.18124443466398,0.25472860005213604,
1.6861877901886204E12,-70.00832080940256,0.1936108694596738,
1.6861877901905737E12,-69.86859717392093,0.07307741031954065,
1.6861877901925269E12,-69.88710839197338,-0.11670936933018526,
1.6861877901944802E12,-70.0071187822563,-0.24539103298633302,
1.6861877901964333E12,-70.18528324587542,-0.22291630289777828,
1.6861877901983867E12,-70.34072939643018,-0.08392009395944205,
1.6861877902003398E12,-70.34734054573462,0.08261363700268376,
1.686187790202293E12,-70.22728207436586,0.23541951518679266,
1.6861877902042463E12,-70.06185909849712,0.22816119440609847,
1.6861877902061995E12,-69.90422525853617,0.1188314236902537,
1.6861877902081528E12,-69.85975025412444,-0.05440428049892131,
1.686187790210106E12,-69.91047579969674,-0.21860753727965934,
1.6861877902120593E12,-70.03841956914499,-0.24313993158953975,
1.6861877902140125E12,-70.30185583852003,-0.12814865188590352,
1.6861877902159658E12,-70.35731737104861,-0.0543405515881226,
1.686187790217919E12,-70.32774750325054,0.12222217524726776,
1.6861877902198723E12,-70.194106125129,0.24834723652132362,
1.6861877902218254E12,-70.02642333822529,0.21297854417428877,
1.6861877902237788E12,-69.8886469867206,0.0884885597983172,
1.686187790225732E12,-69.88593040537005,-0.09150217335253741,
1.6861877902276853E12,-69.99327142953135,-0.2331093079107062,
1.6861877902296384E12,-70.16246877063935,-0.23105097406476405,
1.6861877902315916E12,-70.3294303412553,-0.10647597837632519,
1.686187790233545E12,-70.36229376343414,0.06611078374414639,
1.686187790235498E12,-70.2510100902331,0.22160254138272342,
1.6861877902374514E12,-70.08481781699075,0.23397169715040242,
1.6861877902394045E12,-69.9229047603891,0.13187993385509347,
1.686187790241358E12,-69.86443815999486,-0.03499661859949369,
1.686187790243311E12,-69.95362857424759,-0.20236953853184028,
1.6861877902452644E12,-70.01957178349159,-0.2534950646478173,
1.6861877902472175E12,-70.19939504457255,-0.143889589971998,
1.686187790249171E12,-70.34909550536817,0.009951313625446379,
1.686187790251124E12,-70.34087363968773,0.1801815652011026,
1.6861877902530774E12,-70.13619245722204,0.2348337553233153,
1.6861877902550305E12,-70.0526034894709,0.22704310961421204,
1.686187790256984E12,-69.89686885240104,0.10029820763563663,
1.686187790258937E12,-69.87044829572618,-0.15600072985661734,
1.6861877902608904E12,-69.97389475193359,-0.2328585591916593,
1.6861877902628435E12,-70.13744256545415,-0.2379643970737965,
1.6861877902647966E12,-70.31010174474339,-0.12932930723910954,
1.68618779026675E12,-70.36195719583318,0.04558812969599892,
1.6861877902687031E12,-70.26113115880463,0.19544427197021275,
1.6861877902706565E12,-70.09993931849074,0.2462821298343987,
1.6861877902726096E12,-69.93540584271024,0.13853275431856016,
1.686187790274563E12,-69.86107248398532,-0.009516291274701563,
1.686187790276516E12,-69.94172850549958,-0.1960108310892201,
1.6861877902784695E12,-70.08565923599313,-0.2541671989413886,
1.6861877902804226E12,-70.26574694304628,-0.1698585833893157,
1.686187790282376E12,-70.3653949934715,-0.008156654611065016,
1.686187790284329E12,-70.35116299205974,0.15345024847653235,
1.6861877902862825E12,-70.23670596719256,0.24940974857457607,
1.6861877902882356E12,-70.07130703186675,0.17265749878093353,
1.686187790290189E12,-69.91042771861089,0.04759740020087853,
1.686187790292142E12,-69.90855255626272,-0.051831012998817275,
1.6861877902940952E12,-69.96367752119035,-0.21508079455930074,
1.6861877902960486E12,-70.11842649600027,-0.256783468143448,
1.6861877902980017E12,-70.2948840810717,-0.1338887458536518,
1.686187790299955E12,-70.36426508795401,0.10376785289351848,
1.6861877903019082E12,-70.27750276853673,0.18973234497481917,
1.6861877903038616E12,-70.12275379372682,0.2435789813917157,
1.6861877903058147E12,-69.95406130402024,0.15975179600668027,
1.686187790307768E12,-69.86176965973016,0.006792884800841352,
1.6861877903097212E12,-69.93122278824124,-0.16562399195291314,
1.6861877903116746E12,-70.06169081469665,-0.25603647299476223,
1.6861877903136277E12,-70.24641834653437,-0.17746939567730421,
1.686187790315581E12,-70.36770288559232,-0.02982457548193899,
1.6861877903175342E12,-70.31567915070205,0.15054131282189637,
1.6861877903194875E12,-70.25408727972753,0.2574486468118544,
1.6861877903214407E12,-70.0980881966855,0.1953744149025284,
1.6861877903233938E12,-69.87340528250598,0.06392313512211871,
1.6861877903253472E12,-69.86369290316418,-0.11350218182076947,
1.6861877903273003E12,-69.95014269552343,-0.1954938353259817,
1.6861877903292537E12,-70.09664576410998,-0.2135333592114675,
1.6861877903312068E12,-70.27817590373864,-0.15149650558132277,
1.6861877903331602E12,-70.36683742604701,0.012705330383467446,
1.6861877903351133E12,-70.29101355366073,0.17670607762209795,
1.6861877903370667E12,-70.1486214179144,0.2536157174392678,
1.6861877903390198E12,-69.97617860351149,0.11759433787916726,
1.6861877903409731E12,-69.86179370027308,0.03660634323436598,
1.6861877903429263E12,-69.91800048963235,-0.14988613499466694,
1.6861877903448796E12,-70.0441412183612,-0.2523716158927262,
1.6861877903468328E12,-70.22600792559082,-0.18596632396213342,
1.6861877903487861E12,-70.36395256089598,-0.04659990475225862,
1.6861877903507393E12,-70.33135358468932,0.13179411656908044,
1.6861877903526926E12,-70.1987699904565,0.24863771474066462,
1.6861877903546458E12,-70.02810617623005,0.21513105575572972,
1.6861877903565989E12,-69.87963178312363,0.08937208416313318,
1.6861877903585522E12,-69.86263511927547,-0.08912787131986136,
1.6861877903605054E12,-69.93494907239466,-0.2374007114816625,
1.6861877903624587E12,-70.16597868990644,-0.2229826043213452,
1.6861877903644119E12,-70.25221211737936,-0.16723058872681487,
1.6861877903663652E12,-70.36652489898898,-0.009040003951710892,
1.6861877903683184E12,-70.30661586601923,0.2226182130188977,
1.6861877903702717E12,-70.16809425768386,0.2543559142542839,
1.6861877903722249E12,-69.9959880108819,0.18470195315534,
1.6861877903741782E12,-69.86701049808786,0.056391102185873024,
1.6861877903761313E12,-69.90376848822059,-0.13166476140575814,
1.6861877903780847E12,-70.02303362167282,-0.24956361306344954,
1.6861877903800378E12,-70.20355405849863,-0.20588807132460868,
1.6861877903819912E12,-70.35005712708518,-0.06942103025783433,
1.6861877903839443E12,-70.343037288551,0.09927116533693522,
1.6861877903858975E12,-70.21730524905188,0.24236000103168412,
1.6861877903878508E12,-70.04971862431987,0.21985692215436345,
1.686187790389804E12,-69.89085871666973,0.10298127921316534,
1.6861877903917573E12,-69.87136183635734,-0.07885502060129167,
1.6861877903937104E12,-69.98153964458382,-0.2314620255625085,
1.6861877903956638E12,-70.05729139534132,-0.24135470110110188,
1.686187790397617E12,-70.2421631704366,-0.11880874665222828,
1.6861877903995703E12,-70.36464973664081,0.043781651756596894,
1.6861877904015234E12,-70.25685194216393,0.20350583531386962,
1.6861877904034768E12,-70.18720648930945,0.24564363953287982,
1.68618779040543E12,-70.01291255310129,0.19657754049365309,
1.6861877904073833E12,-69.87963178312363,0.06682650309326595,
1.6861877904093364E12,-69.8926377168462,-0.19540228540152096,
1.6861877904112898E12,-70.00783999854406,-0.2521185862345624,
1.686187790413243E12,-70.18009048860357,-0.22180106512340694,
1.6861877904151963E12,-70.34207566683399,-0.08885180469561324,
1.6861877904171494E12,-70.3515957218324,0.07912396207085488,
1.6861877904191025E12,-70.23413362909956,0.21676866850187537,
1.686187790421056E12,-70.07166764001063,0.21934090315949883,
1.686187790423009E12,-69.91088448892647,0.1124149533450607,
1.6861877904249624E12,-69.86737110623174,-0.057335035224002046,
1.6861877904269155E12,-69.9614417506983,-0.2233595094342764,
1.686187790428869E12,-70.1194121582602,-0.2571445070392781,
1.686187790430822E12,-70.29776894622273,-0.14443713425492644,
1.6861877904327754E12,-70.36013011457086,0.020512056832327655,
1.6861877904347285E12,-70.33844554485228,0.18428960554622603,
1.686187790436682E12,-70.20785731568225,0.24124495061527876,
