"sep=,"
Shimmer_6295_TimestampSync_Unix_CAL,Shimmer_6295_GSR_Skin_Conductance_CAL,Shimmer_6295_PPG_A13_CAL,Shimmer_6295_PPGtoHR_CAL,
ms,uS,mV,BPM,
1.686187800483634E12,0.4655344655344654,1307.6923076923076,68.57142857142857,
1.686187800491447E12,0.46953046953046945,1304.0293040293038,68.57142857142857,
1.68618780049926E12,0.4655344655344654,1302.5641025641025,68.57142857142857,
1.686187800507073E12,0.46953046953046945,1299.6336996336995,68.57142857142857,
1.686187800514886E12,0.4655344655344654,1299.6336996336995,68.57142857142857,
1.686187800522699E12,0.46953046953046945,1296.7032967032967,68.57142857142857,
1.686187800530512E12,0.4655344655344654,1294.5054945054944,68.57142857142857,
1.686187800538325E12,0.46908646908646906,1293.040293040293,68.57142857142857,
1.686187800546138E12,0.4664224664224664,1290.10989010989,68.57142857142857,
1.686187800553951E12,0.4677544677544677,1288.6446886446886,68.57142857142857,
1.686187800561764E12,0.4673104673104673,1285.7142857142856,68.57142857142857,
1.686187800569577E12,0.46686646686646677,1279.8534798534797,68.57142857142857,
1.68618780057739E12,0.4681984681984681,1273.9926739926739,68.57142857142857,
1.686187800585203E12,0.4664224664224664,1271.7948717948716,68.57142857142857,
1.6861878005930159E12,0.4686424686424686,1273.9926739926739,68.57142857142857,
1.6861878006008289E12,0.4655344655344654,1274.7252747252746,68.57142857142857,
1.6861878006086418E12,0.46953046953046945,1272.5274725274724,68.57142857142857,
1.6861878006164548E12,0.4650904650904651,1271.7948717948716,68.57142857142857,
1.6861878006242678E12,0.46953046953046945,1273.260073260073,68.57142857142857,
1.6861878006320808E12,0.4650904650904651,1276.923076923077,68.57142857142857,
1.6861878006398938E12,0.46953046953046945,1276.923076923077,68.57142857142857,
1.6861878006477068E12,0.4655344655344654,1278.3882783882782,68.57142857142857,
1.6861878006555198E12,0.46908646908646906,1279.8534798534797,68.57142857142857,
1.6861878006633328E12,0.4659784659784659,1278.3882783882782,68.57142857142857,
1.6861878006711458E12,0.4686424686424686,1281.3186813186812,68.57142857142857,
1.6861878006789587E12,0.46686646686646677,1282.051282051282,68.57142857142857,
1.6861878006867717E12,0.4673104673104673,1285.7142857142856,68.57142857142857,
1.6861878006945845E12,0.4673104673104673,1287.9120879120878,68.57142857142857,
1.6861878007023975E12,0.4664224664224664,1290.10989010989,68.57142857142857,
1.6861878007102104E12,0.4681984681984681,1291.5750915750914,68.57142857142857,
1.6861878007180234E12,0.4659784659784659,1293.7728937728937,68.57142857142857,
1.6861878007258364E12,0.46908646908646906,1293.7728937728937,68.57142857142857,
1.6861878007336494E12,0.4655344655344654,1293.040293040293,68.57142857142857,
1.6861878007414624E12,0.46953046953046945,1294.5054945054944,68.57142857142857,
1.6861878007492754E12,0.4650904650904651,1294.5054945054944,68.57142857142857,
1.6861878007570884E12,0.46953046953046945,1298.168498168498,68.57142857142857,
1.6861878007649014E12,0.4650904650904651,1297.4358974358975,68.57142857142857,
1.6861878007727144E12,0.46908646908646906,1298.9010989010987,68.57142857142857,
1.6861878007805273E12,0.4655344655344654,1301.098901098901,68.57142857142857,
1.6861878007883403E12,0.4686424686424686,1308.4249084249084,68.57142857142857,
1.6861878007961533E12,0.4659784659784659,1320.8791208791208,68.57142857142857,
1.6861878008039663E12,0.4677544677544677,1336.9963369963368,68.57142857142857,
1.6861878008117793E12,0.46686646686646677,1361.1721611721612,68.57142857142857,
1.6861878008195923E12,0.46686646686646677,1398.5347985347985,68.57142857142857,
1.6861878008274053E12,0.4677544677544677,1444.6886446886447,68.57142857142857,
1.6861878008352183E12,0.4659784659784659,1502.5641025641025,68.57142857142857,
1.6861878008430312E12,0.4686424686424686,1561.9047619047617,68.57142857142857,
1.6861878008508442E12,0.4655344655344654,1625.6410256410256,68.57142857142857,
1.6861878008586572E12,0.4686424686424686,1687.179487179487,68.57142857142857,
1.6861878008664702E12,0.4650904650904651,1742.124542124542,68.57142857142857,
1.6861878008742832E12,0.46908646908646906,1791.2087912087911,68.57142857142857,
1.6861878008820962E12,0.4650904650904651,1830.03663003663,68.57142857142857,
1.6861878008899092E12,0.46953046953046945,1856.4102564102564,68.57142857142857,
1.6861878008977222E12,0.4650904650904651,1867.3992673992673,68.57142857142857,
1.6861878009055352E12,0.46908646908646906,1869.5970695970695,70.45871559633028,
1.6861878009133481E12,0.4655344655344654,1863.003663003663,70.45871559633028,
1.6861878009211611E12,0.4686424686424686,1845.4212454212452,70.45871559633028,
1.686187800928974E12,0.4664224664224664,1819.7802197802196,70.45871559633028,
1.686187800936787E12,0.4673104673104673,1791.2087912087911,70.45871559633028,
1.6861878009445999E12,0.4673104673104673,1756.7765567765566,70.45871559633028,
1.6861878009524128E12,0.4664224664224664,1719.4139194139193,70.45871559633028,
1.6861878009602258E12,0.4681984681984681,1687.179487179487,70.45871559633028,
1.6861878009680388E12,0.4659784659784659,1652.0146520146518,70.45871559633028,
1.6861878009758518E12,0.4686424686424686,1624.9084249084249,70.45871559633028,
1.6861878009836648E12,0.4650904650904651,1600.7326007326005,70.45871559633028,
1.6861878009914778E12,0.46908646908646906,1580.2197802197802,70.45871559633028,
1.6861878009992908E12,0.4650904650904651,1561.9047619047617,70.45871559633028,
1.6861878010071038E12,0.46953046953046945,1542.1245421245421,70.45871559633028,
1.6861878010149167E12,0.4650904650904651,1526.007326007326,70.45871559633028,
1.6861878010227297E12,0.46908646908646906,1512.087912087912,70.45871559633028,
1.6861878010305427E12,0.4650904650904651,1501.098901098901,70.45871559633028,
1.6861878010383557E12,0.4686424686424686,1492.3076923076922,70.45871559633028,
1.6861878010461687E12,0.4659784659784659,1482.051282051282,70.45871559633028,
1.6861878010539817E12,0.4677544677544677,1471.7948717948716,70.45871559633028,
1.6861878010617947E12,0.46686646686646677,1463.7362637362637,70.45871559633028,
1.6861878010696077E12,0.46686646686646677,1456.4102564102564,70.45871559633028,
1.6861878010774207E12,0.4673104673104673,1449.084249084249,70.45871559633028,
1.6861878010852336E12,0.4659784659784659,1441.7582417582416,70.45871559633028,
1.6861878010930466E12,0.4681984681984681,1432.2344322344322,70.45871559633028,
1.6861878011008596E12,0.4650904650904651,1421.245421245421,70.45871559633028,
1.6861878011086726E12,0.4686424686424686,1415.3846153846152,70.45871559633028,
1.6861878011164856E12,0.4650904650904651,1416.117216117216,70.45871559633028,
1.6861878011242986E12,0.46908646908646906,1415.3846153846152,70.45871559633028,
1.6861878011321116E12,0.4650904650904651,1417.5824175824175,70.45871559633028,
1.6861878011399246E12,0.46908646908646906,1421.245421245421,70.45871559633028,
1.6861878011477375E12,0.4650904650904651,1424.9084249084249,70.45871559633028,
1.6861878011555505E12,0.46908646908646906,1427.8388278388277,70.45871559633028,
1.6861878011633635E12,0.4655344655344654,1430.03663003663,70.45871559633028,
1.6861878011711765E12,0.4681984681984681,1430.7692307692307,70.45871559633028,
1.6861878011789895E12,0.4659784659784659,1430.03663003663,70.45871559633028,
1.6861878011868022E12,0.4673104673104673,1430.03663003663,70.45871559633028,
1.6861878011946152E12,0.46686646686646677,1429.3040293040292,70.45871559633028,
1.6861878012024282E12,0.46686646686646677,1424.9084249084249,70.45871559633028,
1.6861878012102412E12,0.4677544677544677,1415.3846153846152,70.45871559633028,
1.6861878012180542E12,0.4659784659784659,1404.3956043956043,70.45871559633028,
1.6861878012258672E12,0.4686424686424686,1393.4065934065934,70.45871559633028,
1.6861878012336802E12,0.4650904650904651,1382.4175824175823,70.45871559633028,
1.6861878012414932E12,0.4686424686424686,1372.8937728937728,70.45871559633028,
1.6861878012493062E12,0.4650904650904651,1362.6373626373625,70.45871559633028,
1.6861878012571191E12,0.46908646908646906,1352.3809523809523,70.45871559633028,
1.6861878012649321E12,0.46464646464646464,1343.5897435897434,70.45871559633028,
1.686187801272745E12,0.46908646908646906,1334.065934065934,70.45871559633028,
1.686187801280558E12,0.4650904650904651,1326.7399267399267,70.45871559633028,
1.686187801288371E12,0.4686424686424686,1317.216117216117,70.45871559633028,
1.686187801296184E12,0.4655344655344654,1309.89010989011,70.45871559633028,
1.686187801303997E12,0.4677544677544677,1304.7619047619046,70.45871559633028,
1.68618780131181E12,0.4664224664224664,1300.3663003663003,70.45871559633028,
1.686187801319623E12,0.46686646686646677,1298.9010989010987,70.45871559633028,
1.686187801327436E12,0.4673104673104673,1294.5054945054944,70.45871559633028,
1.686187801335249E12,0.4659784659784659,1291.5750915750914,70.45871559633028,
1.686187801343062E12,0.4681984681984681,1286.4468864468863,70.45871559633028,
1.686187801350875E12,0.4655344655344654,1280.5860805860805,70.45871559633028,
1.686187801358688E12,0.4686424686424686,1277.6556776556777,70.45871559633028,
1.686187801366501E12,0.4650904650904651,1274.7252747252746,70.45871559633028,
1.686187801374314E12,0.46908646908646906,1271.062271062271,70.45871559633028,
1.686187801382127E12,0.46464646464646464,1269.5970695970695,70.45871559633028,
1.68618780138994E12,0.46908646908646906,1266.6666666666665,70.45871559633028,
1.686187801397753E12,0.46464646464646464,1265.2014652014652,70.45871559633028,
1.686187801405566E12,0.4686424686424686,1266.6666666666665,70.45871559633028,
1.686187801413379E12,0.4650904650904651,1266.6666666666665,70.45871559633028,
1.686187801421192E12,0.4681984681984681,1264.4688644688645,70.45871559633028,
1.6861878014290046E12,0.4659784659784659,1265.2014652014652,70.45871559633028,
1.6861878014368176E12,0.4673104673104673,1263.003663003663,70.45871559633028,
1.6861878014446306E12,0.46686646686646677,1265.2014652014652,70.45871559633028,
1.6861878014524436E12,0.4664224664224664,1263.003663003663,70.45871559633028,
1.6861878014602566E12,0.4673104673104673,1261.5384615384614,70.45871559633028,
1.6861878014680696E12,0.4655344655344654,1261.5384615384614,70.45871559633028,
1.6861878014758826E12,0.4681984681984681,1263.003663003663,70.45871559633028,
1.6861878014836956E12,0.4650904650904651,1268.8644688644688,70.45871559633028,
1.6861878014915085E12,0.4686424686424686,1271.062271062271,70.45871559633028,
1.6861878014993215E12,0.46464646464646464,1272.5274725274724,70.45871559633028,
1.6861878015071345E12,0.46908646908646906,1273.260073260073,70.45871559633028,
1.6861878015149475E12,0.46464646464646464,1271.7948717948716,70.45871559633028,
1.6861878015227605E12,0.46908646908646906,1271.062271062271,70.45871559633028,
1.6861878015305735E12,0.46464646464646464,1269.5970695970695,70.45871559633028,
1.6861878015383865E12,0.4681984681984681,1266.6666666666665,70.45871559633028,
1.6861878015461995E12,0.4655344655344654,1265.2014652014652,70.45871559633028,
1.6861878015540125E12,0.4677544677544677,1262.2710622710622,70.45871559633028,
1.6861878015618254E12,0.4664224664224664,1263.003663003663,70.45871559633028,
1.6861878015696384E12,0.46686646686646677,1263.003663003663,70.45871559633028,
1.6861878015774514E12,0.46686646686646677,1262.2710622710622,70.45871559633028,
1.6861878015852644E12,0.4659784659784659,1263.7362637362637,70.45871559633028,
1.6861878015930774E12,0.4677544677544677,1265.9340659340658,70.45871559633028,
1.6861878016008904E12,0.4655344655344654,1271.062271062271,70.45871559633028,
1.6861878016087034E12,0.4681984681984681,1274.7252747252746,70.45871559633028,
1.6861878016165164E12,0.46464646464646464,1279.120879120879,70.45871559633028,
1.6861878016243293E12,0.4686424686424686,1287.9120879120878,70.45871559633028,
1.6861878016321423E12,0.46464646464646464,1301.8315018315018,70.45871559633028,
1.6861878016399553E12,0.46908646908646906,1327.4725274725274,70.45871559633028,
1.6861878016477683E12,0.46464646464646464,1358.974358974359,70.45871559633028,
1.6861878016555813E12,0.4686424686424686,1395.6043956043954,70.45871559633028,
1.6861878016633943E12,0.4650904650904651,1441.0256410256409,70.45871559633028,
1.6861878016712073E12,0.4681984681984681,1495.970695970696,70.45871559633028,
1.68618780167902E12,0.4659784659784659,1554.5787545787546,70.45871559633028,
1.686187801686833E12,0.4673104673104673,1616.8498168498168,70.45871559633028,
1.686187801694646E12,0.4664224664224664,1674.7252747252746,70.45871559633028,
1.686187801702459E12,0.4664224664224664,1727.4725274725274,77.57575757575758,
1.686187801710272E12,0.4673104673104673,1772.8937728937728,77.57575757575758,
1.686187801718085E12,0.4659784659784659,1808.058608058608,77.57575757575758,
1.686187801725898E12,0.4681984681984681,1833.6996336996335,77.57575757575758,
1.686187801733711E12,0.4650904650904651,1841.7582417582416,77.57575757575758,
1.686187801741524E12,0.4686424686424686,1838.8278388278386,77.57575757575758,
1.686187801749337E12,0.46464646464646464,1826.3736263736262,77.57575757575758,
1.68618780175715E12,0.46908646908646906,1805.8608058608058,77.57575757575758,
1.686187801764963E12,0.46464646464646464,1781.6849816849815,77.57575757575758,
1.686187801772776E12,0.46908646908646906,1746.5201465201465,77.57575757575758,
1.6861878017805889E12,0.4650904650904651,1710.6227106227104,77.57575757575758,
1.6861878017884019E12,0.4686424686424686,1675.4578754578754,77.57575757575758,
1.6861878017962148E12,0.4655344655344654,1637.3626373626373,77.57575757575758,
1.6861878018040278E12,0.4677544677544677,1604.3956043956043,77.57575757575758,
1.6861878018118408E12,0.4659784659784659,1572.8937728937728,77.57575757575758,
1.6861878018196538E12,0.46686646686646677,1545.7875457875457,77.57575757575758,
1.6861878018274668E12,0.46686646686646677,1520.8791208791208,77.57575757575758,
1.6861878018352798E12,0.4659784659784659,1501.8315018315018,77.57575757575758,
1.6861878018430928E12,0.4677544677544677,1488.6446886446886,77.57575757575758,
1.6861878018509058E12,0.4655344655344654,1473.260073260073,77.57575757575758,
1.6861878018587188E12,0.4681984681984681,1460.8058608058607,77.57575757575758,
1.6861878018665317E12,0.46464646464646464,1446.8864468864467,77.57575757575758,
1.6861878018743447E12,0.4686424686424686,1433.6996336996335,77.57575757575758,
1.6861878018821577E12,0.46464646464646464,1421.245421245421,77.57575757575758,
1.6861878018899707E12,0.46908646908646906,1410.989010989011,77.57575757575758,
1.6861878018977837E12,0.46464646464646464,1394.8717948717947,77.57575757575758,
1.6861878019055967E12,0.4686424686424686,1377.2893772893772,77.57575757575758,
1.6861878019134097E12,0.4650904650904651,1362.6373626373625,77.57575757575758,
1.6861878019212224E12,0.4681984681984681,1353.8461538461538,77.57575757575758,
1.6861878019290354E12,0.4655344655344654,1350.9157509157508,77.57575757575758,
1.6861878019368484E12,0.4673104673104673,1348.7179487179487,77.57575757575758,
1.6861878019446614E12,0.4664224664224664,1349.4505494505493,77.57575757575758,
1.6861878019524744E12,0.4664224664224664,1354.5787545787546,77.57575757575758,
1.6861878019602874E12,0.4673104673104673,1360.4395604395604,77.57575757575758,
1.6861878019681003E12,0.4655344655344654,1367.7655677655678,77.57575757575758,
1.6861878019759133E12,0.4681984681984681,1372.161172161172,77.57575757575758,
1.6861878019837263E12,0.4650904650904651,1377.2893772893772,77.57575757575758,
1.6861878019915393E12,0.4686424686424686,1385.3479853479853,77.57575757575758,
1.6861878019993523E12,0.46464646464646464,1390.4761904761904,77.57575757575758,
1.6861878020071653E12,0.46908646908646906,1398.5347985347985,77.57575757575758,
1.6861878020149783E12,0.46464646464646464,1402.9304029304028,77.57575757575758,
1.6861878020227913E12,0.46908646908646906,1402.9304029304028,77.57575757575758,
1.6861878020306042E12,0.4650904650904651,1401.4652014652013,77.57575757575758,
1.6861878020384172E12,0.4686424686424686,1399.2673992673992,77.57575757575758,
1.6861878020462302E12,0.4655344655344654,1393.4065934065934,77.57575757575758,
1.6861878020540432E12,0.4681984681984681,1382.4175824175823,77.57575757575758,
1.6861878020618562E12,0.4659784659784659,1369.9633699633698,77.57575757575758,
1.6861878020696692E12,0.4673104673104673,1357.5091575091574,77.57575757575758,
1.6861878020774822E12,0.46686646686646677,1345.7875457875457,77.57575757575758,
1.6861878020852952E12,0.4664224664224664,1333.3333333333333,77.57575757575758,
1.6861878020931082E12,0.4677544677544677,1323.076923076923,77.57575757575758,
1.6861878021009211E12,0.4655344655344654,1311.3553113553112,77.57575757575758,
1.6861878021087341E12,0.4681984681984681,1301.098901098901,77.57575757575758,
1.686187802116547E12,0.4650904650904651,1293.7728937728937,77.57575757575758,
1.68618780212436E12,0.46908646908646906,1285.7142857142856,77.57575757575758,
1.686187802132173E12,0.46464646464646464,1282.051282051282,77.57575757575758,
1.686187802139986E12,0.46908646908646906,1276.923076923077,77.57575757575758,
1.686187802147799E12,0.4650904650904651,1273.260073260073,77.57575757575758,
1.686187802155612E12,0.46908646908646906,1269.5970695970695,77.57575757575758,
1.6861878021634248E12,0.4650904650904651,1265.2014652014652,77.57575757575758,
1.6861878021712378E12,0.4686424686424686,1263.7362637362637,77.57575757575758,
1.6861878021790508E12,0.4659784659784659,1263.003663003663,77.57575757575758,
1.6861878021868638E12,0.4677544677544677,1260.8058608058607,77.57575757575758,
1.6861878021946768E12,0.4664224664224664,1260.8058608058607,77.57575757575758,
1.6861878022024897E12,0.46686646686646677,1263.003663003663,77.57575757575758,
1.6861878022103027E12,0.4673104673104673,1265.9340659340658,77.57575757575758,
1.6861878022181157E12,0.4659784659784659,1268.131868131868,77.57575757575758,
1.6861878022259287E12,0.4681984681984681,1271.062271062271,77.57575757575758,
1.6861878022337417E12,0.4650904650904651,1274.7252747252746,77.57575757575758,
1.6861878022415547E12,0.4686424686424686,1279.120879120879,77.57575757575758,
1.6861878022493677E12,0.4650904650904651,1284.2490842490843,77.57575757575758,
1.6861878022571807E12,0.46908646908646906,1286.4468864468863,77.57575757575758,
1.6861878022649937E12,0.46464646464646464,1287.9120879120878,77.57575757575758,
1.6861878022728066E12,0.46908646908646906,1287.179487179487,77.57575757575758,
1.6861878022806196E12,0.4650904650904651,1286.4468864468863,77.57575757575758,
1.6861878022884326E12,0.4686424686424686,1285.7142857142856,77.57575757575758,
1.6861878022962456E12,0.4655344655344654,1279.8534798534797,77.57575757575758,
1.6861878023040586E12,0.4681984681984681,1275.4578754578754,77.57575757575758,
1.6861878023118716E12,0.4659784659784659,1273.260073260073,77.57575757575758,
1.6861878023196846E12,0.4673104673104673,1270.3296703296703,77.57575757575758,
1.6861878023274976E12,0.46686646686646677,1267.3992673992673,77.57575757575758,
1.6861878023353105E12,0.4664224664224664,1268.131868131868,77.57575757575758,
1.6861878023431235E12,0.4677544677544677,1268.8644688644688,77.57575757575758,
1.6861878023509365E12,0.4655344655344654,1268.131868131868,77.57575757575758,
1.6861878023587495E12,0.4681984681984681,1268.131868131868,77.57575757575758,
1.6861878023665625E12,0.4650904650904651,1268.8644688644688,77.57575757575758,
1.6861878023743755E12,0.4686424686424686,1273.260073260073,77.57575757575758,
1.6861878023821885E12,0.46464646464646464,1279.120879120879,77.57575757575758,
1.6861878023900015E12,0.46908646908646906,1287.9120879120878,77.57575757575758,
1.6861878023978145E12,0.46464646464646464,1303.2967032967033,77.57575757575758,
1.6861878024056274E12,0.46908646908646906,1322.3443223443223,77.57575757575758,
1.6861878024134402E12,0.4650904650904651,1352.3809523809523,77.57575757575758,
1.6861878024212532E12,0.4681984681984681,1389.0109890109889,77.57575757575758,
1.6861878024290662E12,0.4655344655344654,1435.164835164835,77.57575757575758,
1.6861878024368792E12,0.4681984681984681,1484.2490842490843,77.57575757575758,
1.6861878024446921E12,0.4664224664224664,1539.194139194139,77.57575757575758,
1.6861878024525051E12,0.46686646686646677,1599.2673992673992,77.57575757575758,
1.686187802460318E12,0.4673104673104673,1654.9450549450548,77.57575757575758,
1.686187802468131E12,0.4659784659784659,1702.5641025641025,77.57575757575758,
1.686187802475944E12,0.4681984681984681,1744.3223443223442,77.57575757575758,
1.686187802483757E12,0.4655344655344654,1776.5567765567764,77.57575757575758,
1.68618780249157E12,0.4686424686424686,1799.2673992673992,77.57575757575758,
1.686187802499383E12,0.4650904650904651,1805.8608058608058,77.57575757575758,
1.686187802507196E12,0.46908646908646906,1799.2673992673992,77.57575757575758,
1.686187802515009E12,0.46464646464646464,1783.8827838827838,77.57575757575758,
1.686187802522822E12,0.46908646908646906,1761.9047619047617,77.57575757575758,
1.686187802530635E12,0.4650904650904651,1733.3333333333333,77.57575757575758,
1.686187802538448E12,0.4686424686424686,1698.168498168498,75.29411764705883,
1.686187802546261E12,0.4655344655344654,1660.8058608058607,75.29411764705883,
1.686187802554074E12,0.4681984681984681,1620.5128205128203,75.29411764705883,
1.686187802561887E12,0.4659784659784659,1583.8827838827838,75.29411764705883,
1.6861878025697E12,0.4673104673104673,1550.18315018315,75.29411764705883,
1.686187802577513E12,0.46686646686646677,1523.8095238095236,75.29411764705883,
1.686187802585326E12,0.4664224664224664,1496.7032967032967,75.29411764705883,
1.686187802593139E12,0.4677544677544677,1473.260073260073,75.29411764705883,
1.686187802600952E12,0.4655344655344654,1452.014652014652,75.29411764705883,
1.686187802608765E12,0.4681984681984681,1435.164835164835,75.29411764705883,
1.686187802616578E12,0.4650904650904651,1420.5128205128203,75.29411764705883,
1.6861878026243909E12,0.46908646908646906,1401.4652014652013,75.29411764705883,
1.6861878026322039E12,0.46464646464646464,1385.3479853479853,75.29411764705883,
1.6861878026400168E12,0.46908646908646906,1368.4981684981683,75.29411764705883,
1.6861878026478298E12,0.46464646464646464,1356.0439560439559,75.29411764705883,
1.6861878026556426E12,0.46908646908646906,1345.7875457875457,75.29411764705883,
1.6861878026634556E12,0.4650904650904651,1336.263736263736,75.29411764705883,
1.6861878026712686E12,0.4686424686424686,1328.2051282051282,75.29411764705883,
1.6861878026790815E12,0.4655344655344654,1320.8791208791208,75.29411764705883,
1.6861878026868945E12,0.4677544677544677,1316.4835164835165,75.29411764705883,
1.6861878026947075E12,0.4664224664224664,1315.7509157509157,75.29411764705883,
1.6861878027025205E12,0.46686646686646677,1317.9487179487178,75.29411764705883,
1.6861878027103335E12,0.4673104673104673,1321.6117216117216,75.29411764705883,
1.6861878027181465E12,0.4659784659784659,1328.2051282051282,75.29411764705883,
1.6861878027259595E12,0.4681984681984681,1339.9267399267399,75.29411764705883,
1.6861878027337725E12,0.4650904650904651,1352.3809523809523,75.29411764705883,
1.6861878027415854E12,0.4686424686424686,1360.4395604395604,75.29411764705883,
1.6861878027493984E12,0.46464646464646464,1367.032967032967,75.29411764705883,
1.6861878027572114E12,0.46908646908646906,1371.4285714285713,75.29411764705883,
1.6861878027650244E12,0.46464646464646464,1375.8241758241757,75.29411764705883,
1.6861878027728374E12,0.4686424686424686,1378.7545787545787,75.29411764705883,
1.6861878027806504E12,0.46464646464646464,1378.021978021978,75.29411764705883,
1.6861878027884634E12,0.4686424686424686,1374.3589743589744,75.29411764705883,
1.6861878027962764E12,0.4650904650904651,1369.230769230769,75.29411764705883,
1.6861878028040894E12,0.4681984681984681,1364.102564102564,75.29411764705883,
1.6861878028119023E12,0.4659784659784659,1357.5091575091574,75.29411764705883,
1.6861878028197153E12,0.4673104673104673,1353.113553113553,75.29411764705883,
1.6861878028275283E12,0.4664224664224664,1345.7875457875457,75.29411764705883,
1.6861878028353413E12,0.4659784659784659,1336.263736263736,75.29411764705883,
1.6861878028431543E12,0.4673104673104673,1325.2747252747251,75.29411764705883,
1.6861878028509673E12,0.4655344655344654,1314.2857142857142,75.29411764705883,
1.6861878028587803E12,0.4677544677544677,1305.4945054945053,75.29411764705883,
1.6861878028665933E12,0.46464646464646464,1295.2380952380952,75.29411764705883,
1.6861878028744062E12,0.4686424686424686,1287.179487179487,75.29411764705883,
1.6861878028822192E12,0.46464646464646464,1281.3186813186812,75.29411764705883,
1.6861878028900322E12,0.4686424686424686,1275.4578754578754,75.29411764705883,
1.6861878028978452E12,0.46464646464646464,1271.062271062271,75.29411764705883,
1.686187802905658E12,0.4686424686424686,1264.4688644688645,75.29411764705883,
1.686187802913471E12,0.46464646464646464,1257.8754578754579,75.29411764705883,
1.686187802921284E12,0.4681984681984681,1251.2820512820513,75.29411764705883,
1.686187802929097E12,0.4650904650904651,1249.084249084249,75.29411764705883,
1.68618780293691E12,0.4673104673104673,1249.084249084249,75.29411764705883,
1.686187802944723E12,0.4659784659784659,1249.8168498168498,75.29411764705883,
1.686187802952536E12,0.46686646686646677,1254.212454212454,75.29411764705883,
1.6861878029603489E12,0.46686646686646677,1260.07326007326,75.29411764705883,
1.6861878029681619E12,0.4659784659784659,1261.5384615384614,75.29411764705883,
1.6861878029759749E12,0.4673104673104673,1265.2014652014652,75.29411764705883,
1.6861878029837878E12,0.4650904650904651,1266.6666666666665,75.29411764705883,
1.6861878029916008E12,0.4677544677544677,1268.131868131868,75.29411764705883,
1.6861878029994138E12,0.46420246420246414,1268.131868131868,75.29411764705883,
1.6861878030072268E12,0.4681984681984681,1270.3296703296703,75.29411764705883,
1.6861878030150398E12,0.46420246420246414,1270.3296703296703,75.29411764705883,
1.6861878030228528E12,0.4686424686424686,1270.3296703296703,75.29411764705883,
1.6861878030306658E12,0.46420246420246414,1271.062271062271,75.29411764705883,
1.6861878030384788E12,0.4681984681984681,1272.5274725274724,75.29411764705883,
1.6861878030462917E12,0.46464646464646464,1273.9926739926739,75.29411764705883,
1.6861878030541047E12,0.4677544677544677,1274.7252747252746,75.29411764705883,
1.6861878030619177E12,0.4655344655344654,1276.1904761904761,75.29411764705883,
1.6861878030697307E12,0.46686646686646677,1274.7252747252746,75.29411764705883,
1.6861878030775437E12,0.4659784659784659,1274.7252747252746,75.29411764705883,
1.6861878030853567E12,0.4659784659784659,1273.9926739926739,75.29411764705883,
1.6861878030931697E12,0.46686646686646677,1274.7252747252746,75.29411764705883,
1.6861878031009827E12,0.4650904650904651,1275.4578754578754,75.29411764705883,
1.6861878031087957E12,0.4673104673104673,1272.5274725274724,75.29411764705883,
1.6861878031166086E12,0.46464646464646464,1268.8644688644688,75.29411764705883,
1.6861878031244216E12,0.4681984681984681,1265.9340659340658,75.29411764705883,
1.6861878031322346E12,0.46420246420246414,1264.4688644688645,75.29411764705883,
1.6861878031400476E12,0.4681984681984681,1266.6666666666665,75.29411764705883,
1.6861878031478604E12,0.46420246420246414,1268.8644688644688,75.29411764705883,
1.6861878031556733E12,0.4681984681984681,1272.5274725274724,75.29411764705883,
1.6861878031634863E12,0.46420246420246414,1279.8534798534797,75.29411764705883,
1.6861878031712993E12,0.4677544677544677,1289.3772893772893,75.29411764705883,
1.6861878031791123E12,0.46464646464646464,1304.7619047619046,75.29411764705883,
1.6861878031869253E12,0.46686646686646677,1321.6117216117216,75.29411764705883,
1.6861878031947383E12,0.4650904650904651,1346.5201465201465,75.29411764705883,
1.6861878032025513E12,0.4659784659784659,1378.021978021978,75.29411764705883,
1.6861878032103643E12,0.4659784659784659,1420.5128205128203,75.29411764705883,
1.6861878032181772E12,0.4655344655344654,1472.5274725274724,75.29411764705883,
1.6861878032259902E12,0.46686646686646677,1529.6703296703295,75.29411764705883,
1.6861878032338032E12,0.46464646464646464,1588.278388278388,75.29411764705883,
1.6861878032416162E12,0.4677544677544677,1644.6886446886447,75.29411764705883,
1.6861878032494292E12,0.46420246420246414,1694.5054945054944,75.29411764705883,
1.6861878032572422E12,0.4681984681984681,1734.7985347985348,75.29411764705883,
1.6861878032650552E12,0.46375846375846375,1766.3003663003662,75.29411764705883,
1.6861878032728682E12,0.4681984681984681,1783.8827838827838,75.29411764705883,
1.6861878032806812E12,0.46375846375846375,1791.2087912087911,75.29411764705883,
1.6861878032884941E12,0.4677544677544677,1786.080586080586,75.29411764705883,
1.6861878032963071E12,0.46420246420246414,1775.091575091575,71.77570093457943,
1.68618780330412E12,0.4673104673104673,1757.5091575091574,71.77570093457943,
1.686187803311933E12,0.46464646464646464,1731.135531135531,71.77570093457943,
1.686187803319746E12,0.4664224664224664,1698.9010989010987,71.77570093457943,
1.686187803327559E12,0.4655344655344654,1665.9340659340658,71.77570093457943,
1.686187803335372E12,0.4655344655344654,1630.7692307692307,71.77570093457943,
1.686187803343185E12,0.4659784659784659,1596.3369963369962,71.77570093457943,
1.686187803350998E12,0.46464646464646464,1561.1721611721612,71.77570093457943,
1.686187803358811E12,0.46686646686646677,1532.6007326007325,71.77570093457943,
1.686187803366624E12,0.46420246420246414,1509.89010989011,71.77570093457943,
1.686187803374437E12,0.4673104673104673,1490.10989010989,71.77570093457943,
1.68618780338225E12,0.46375846375846375,1474.7252747252746,71.77570093457943,
1.6861878033900627E12,0.4677544677544677,1460.07326007326,71.77570093457943,
1.6861878033978757E12,0.4633144633144633,1446.153846153846,71.77570093457943,
1.6861878034056887E12,0.4677544677544677,1432.9670329670328,71.77570093457943,
1.6861878034135017E12,0.46375846375846375,1420.5128205128203,71.77570093457943,
1.6861878034213147E12,0.4673104673104673,1409.5238095238094,71.77570093457943,
1.6861878034291277E12,0.46420246420246414,1398.5347985347985,71.77570093457943,
1.6861878034369407E12,0.4664224664224664,1387.5457875457876,71.77570093457943,
1.6861878034447537E12,0.46464646464646464,1378.7545787545787,71.77570093457943,
1.6861878034525667E12,0.4659784659784659,1367.7655677655678,71.77570093457943,
1.6861878034603796E12,0.4655344655344654,1361.1721611721612,71.77570093457943,
1.6861878034681926E12,0.4650904650904651,1350.18315018315,71.77570093457943,
1.6861878034760056E12,0.4664224664224664,1342.1245421245421,71.77570093457943,
1.6861878034838186E12,0.46420246420246414,1336.263736263736,71.77570093457943,
1.6861878034916316E12,0.46686646686646677,1334.7985347985348,71.77570093457943,
1.6861878034994446E12,0.4633144633144633,1335.5311355311355,71.77570093457943,
1.6861878035072576E12,0.4673104673104673,1339.9267399267399,71.77570093457943,
1.6861878035150706E12,0.4628704628704628,1341.3919413919414,71.77570093457943,
1.6861878035228835E12,0.4673104673104673,1342.8571428571427,71.77570093457943,
1.6861878035306965E12,0.4633144633144633,1342.8571428571427,71.77570093457943,
1.6861878035385095E12,0.4673104673104673,1345.054945054945,71.77570093457943,
1.6861878035463225E12,0.46375846375846375,1350.18315018315,71.77570093457943,
1.6861878035541355E12,0.46686646686646677,1353.8461538461538,71.77570093457943,
1.6861878035619485E12,0.46420246420246414,1355.3113553113553,71.77570093457943,
1.6861878035697615E12,0.4659784659784659,1356.7765567765566,71.77570093457943,
1.6861878035775745E12,0.4650904650904651,1358.2417582417581,71.77570093457943,
1.6861878035853875E12,0.4650904650904651,1358.2417582417581,71.77570093457943,
1.6861878035932004E12,0.4655344655344654,1353.113553113553,71.77570093457943,
1.6861878036010134E12,0.46420246420246414,1346.5201465201465,71.77570093457943,
1.6861878036088264E12,0.4664224664224664,1340.6593406593406,71.77570093457943,
1.6861878036166394E12,0.46375846375846375,1334.065934065934,71.77570093457943,
1.6861878036244524E12,0.46686646686646677,1328.937728937729,71.77570093457943,
1.6861878036322654E12,0.4633144633144633,1318.6813186813185,71.77570093457943,
1.6861878036400781E12,0.4673104673104673,1311.3553113553112,71.77570093457943,
1.686187803647891E12,0.4628704628704628,1305.4945054945053,71.77570093457943,
1.686187803655704E12,0.4673104673104673,1298.9010989010987,71.77570093457943,
1.686187803663517E12,0.4633144633144633,1293.7728937728937,71.77570093457943,
1.68618780367133E12,0.4673104673104673,1285.7142857142856,71.77570093457943,
1.686187803679143E12,0.46375846375846375,1278.3882783882782,71.77570093457943,
1.686187803686956E12,0.4664224664224664,1268.131868131868,71.77570093457943,
1.686187803694769E12,0.46420246420246414,1263.003663003663,71.77570093457943,
1.686187803702582E12,0.4655344655344654,1259.3406593406592,71.77570093457943,
1.686187803710395E12,0.4650904650904651,1254.212454212454,71.77570093457943,
1.686187803718208E12,0.46464646464646464,1252.014652014652,71.77570093457943,
1.686187803726021E12,0.4655344655344654,1250.5494505494505,71.77570093457943,
1.686187803733834E12,0.46375846375846375,1249.084249084249,71.77570093457943,
1.686187803741647E12,0.4664224664224664,1250.5494505494505,71.77570093457943,
1.68618780374946E12,0.4633144633144633,1252.7472527472526,71.77570093457943,
1.686187803757273E12,0.46686646686646677,1254.212454212454,71.77570093457943,
1.686187803765086E12,0.4628704628704628,1254.9450549450548,71.77570093457943,
1.686187803772899E12,0.4673104673104673,1257.8754578754579,71.77570093457943,
1.686187803780712E12,0.4628704628704628,1260.07326007326,71.77570093457943,
1.686187803788525E12,0.4673104673104673,1264.4688644688645,71.77570093457943,
1.686187803796338E12,0.4633144633144633,1265.2014652014652,71.77570093457943,
1.686187803804151E12,0.4664224664224664,1265.9340659340658,71.77570093457943,
1.6861878038119639E12,0.46375846375846375,1266.6666666666665,71.77570093457943,
1.6861878038197769E12,0.4655344655344654,1267.3992673992673,71.77570093457943,
1.6861878038275898E12,0.46420246420246414,1269.5970695970695,71.77570093457943,
1.6861878038354028E12,0.4650904650904651,1269.5970695970695,71.77570093457943,
1.6861878038432158E12,0.4650904650904651,1268.8644688644688,71.77570093457943,
1.6861878038510288E12,0.46375846375846375,1267.3992673992673,71.77570093457943,
1.6861878038588418E12,0.4659784659784659,1267.3992673992673,71.77570093457943,
1.6861878038666548E12,0.4633144633144633,1270.3296703296703,71.77570093457943,
1.6861878038744678E12,0.4664224664224664,1268.8644688644688,71.77570093457943,
1.6861878038822805E12,0.4628704628704628,1270.3296703296703,71.77570093457943,
1.6861878038900935E12,0.46686646686646677,1268.8644688644688,71.77570093457943,
1.6861878038979065E12,0.46242646242646235,1267.3992673992673,71.77570093457943,
1.6861878039057195E12,0.46686646686646677,1264.4688644688645,71.77570093457943,
1.6861878039135325E12,0.46242646242646235,1260.8058608058607,71.77570093457943,
1.6861878039213455E12,0.4664224664224664,1259.3406593406592,71.77570093457943,
1.6861878039291584E12,0.4633144633144633,1258.6080586080586,71.77570093457943,
1.6861878039369714E12,0.4659784659784659,1257.142857142857,71.77570093457943,
1.6861878039447844E12,0.46375846375846375,1257.142857142857,71.77570093457943,
1.6861878039525974E12,0.4650904650904651,1255.6776556776556,71.77570093457943,
1.6861878039604104E12,0.46464646464646464,1257.8754578754579,71.77570093457943,
1.6861878039682234E12,0.46420246420246414,1259.3406593406592,71.77570093457943,
1.6861878039760364E12,0.4655344655344654,1260.8058608058607,71.77570093457943,
1.6861878039838494E12,0.4633144633144633,1262.2710622710622,71.77570093457943,
1.6861878039916624E12,0.4659784659784659,1268.8644688644688,71.77570093457943,
1.6861878039994753E12,0.4628704628704628,1271.062271062271,71.77570093457943,
1.6861878040072883E12,0.4664224664224664,1276.1904761904761,71.77570093457943,
1.6861878040151013E12,0.46242646242646235,1284.2490842490843,71.77570093457943,
1.6861878040229143E12,0.46686646686646677,1295.970695970696,71.77570093457943,
1.6861878040307273E12,0.46242646242646235,1314.2857142857142,71.77570093457943,
1.6861878040385403E12,0.4664224664224664,1334.7985347985348,71.77570093457943,
1.6861878040463533E12,0.46242646242646235,1361.904761904762,71.77570093457943,
1.6861878040541663E12,0.4659784659784659,1396.3369963369962,71.77570093457943,
1.6861878040619792E12,0.4633144633144633,1435.8974358974358,71.77570093457943,
1.6861878040697922E12,0.4650904650904651,1481.3186813186812,71.77570093457943,
1.6861878040776052E12,0.46375846375846375,1524.5421245421244,71.77570093457943,
1.6861878040854182E12,0.46464646464646464,1568.4981684981683,79.17525773195877,
1.6861878040932312E12,0.46464646464646464,1610.2564102564102,79.17525773195877,
1.6861878041010442E12,0.46375846375846375,1644.6886446886447,79.17525773195877,
1.6861878041088572E12,0.4655344655344654,1675.4578754578754,79.17525773195877,
1.6861878041166702E12,0.4628704628704628,1693.040293040293,79.17525773195877,
1.686187804124483E12,0.4659784659784659,1701.098901098901,79.17525773195877,
1.686187804132296E12,0.46242646242646235,1702.5641025641025,79.17525773195877,
1.686187804140109E12,0.4664224664224664,1691.5750915750914,79.17525773195877,
1.6861878041479219E12,0.46242646242646235,1676.1904761904761,79.17525773195877,
1.6861878041557349E12,0.4664224664224664,1654.212454212454,79.17525773195877,
1.6861878041635479E12,0.46242646242646235,1626.3736263736262,79.17525773195877,
1.6861878041713608E12,0.4659784659784659,1597.069597069597,79.17525773195877,
1.6861878041791738E12,0.46242646242646235,1567.032967032967,79.17525773195877,
1.6861878041869868E12,0.4659784659784659,1539.9267399267399,79.17525773195877,
1.6861878041947998E12,0.4633144633144633,1512.8205128205127,79.17525773195877,
1.6861878042026128E12,0.46464646464646464,1485.7142857142856,79.17525773195877,
1.6861878042104258E12,0.46420246420246414,1463.7362637362637,79.17525773195877,
1.6861878042182388E12,0.46375846375846375,1443.956043956044,79.17525773195877,
1.6861878042260518E12,0.4650904650904651,1430.7692307692307,79.17525773195877,
1.6861878042338647E12,0.4628704628704628,1419.7802197802198,79.17525773195877,
1.6861878042416777E12,0.4650904650904651,1408.058608058608,79.17525773195877,
1.6861878042494907E12,0.46242646242646235,1398.5347985347985,79.17525773195877,
1.6861878042573037E12,0.4659784659784659,1388.278388278388,79.17525773195877,
1.6861878042651167E12,0.46198246198246196,1379.4871794871794,79.17525773195877,
1.6861878042729297E12,0.4659784659784659,1374.3589743589744,79.17525773195877,
1.6861878042807427E12,0.46198246198246196,1364.8351648351647,79.17525773195877,
1.6861878042885557E12,0.4659784659784659,1354.5787545787546,79.17525773195877,
1.6861878042963687E12,0.46198246198246196,1346.5201465201465,79.17525773195877,
1.6861878043041816E12,0.4659784659784659,1340.6593406593406,79.17525773195877,
1.6861878043119946E12,0.4628704628704628,1337.7289377289376,79.17525773195877,
1.6861878043198076E12,0.4650904650904651,1331.8681318681317,79.17525773195877,
1.6861878043276206E12,0.4633144633144633,1326.007326007326,79.17525773195877,
1.6861878043354336E12,0.46420246420246414,1320.14652014652,79.17525773195877,
1.6861878043432466E12,0.46420246420246414,1317.216117216117,79.17525773195877,
1.6861878043510596E12,0.4633144633144633,1317.216117216117,79.17525773195877,
1.6861878043588726E12,0.4650904650904651,1317.9487179487178,79.17525773195877,
1.6861878043666855E12,0.46242646242646235,1322.3443223443223,79.17525773195877,
1.6861878043744983E12,0.4655344655344654,1329.6703296703297,79.17525773195877,
1.6861878043823113E12,0.46198246198246196,1334.7985347985348,79.17525773195877,
1.6861878043901243E12,0.4659784659784659,1341.3919413919414,79.17525773195877,
1.6861878043979373E12,0.46153846153846145,1342.8571428571427,79.17525773195877,
1.6861878044057502E12,0.4655344655344654,1343.5897435897434,79.17525773195877,
1.6861878044135632E12,0.46153846153846145,1342.1245421245421,79.17525773195877,
1.6861878044213762E12,0.4659784659784659,1339.9267399267399,79.17525773195877,
1.6861878044291892E12,0.46198246198246196,1336.9963369963368,79.17525773195877,
1.6861878044370022E12,0.4650904650904651,1335.5311355311355,79.17525773195877,
1.6861878044448152E12,0.4628704628704628,1332.6007326007325,79.17525773195877,
1.6861878044526282E12,0.46420246420246414,1330.4029304029302,79.17525773195877,
1.6861878044604412E12,0.46375846375846375,1326.7399267399267,79.17525773195877,
1.6861878044682542E12,0.4633144633144633,1321.6117216117216,79.17525773195877,
1.6861878044760671E12,0.46420246420246414,1318.6813186813185,79.17525773195877,
1.6861878044838801E12,0.46242646242646235,1312.087912087912,79.17525773195877,
1.686187804491693E12,0.4650904650904651,1306.9597069597069,79.17525773195877,
1.686187804499506E12,0.46198246198246196,1298.168498168498,79.17525773195877,
1.686187804507319E12,0.4655344655344654,1289.3772893772893,79.17525773195877,
1.686187804515132E12,0.46153846153846145,1285.7142857142856,79.17525773195877,
1.686187804522945E12,0.4659784659784659,1282.7838827838827,79.17525773195877,
1.686187804530758E12,0.46153846153846145,1278.3882783882782,79.17525773195877,
1.686187804538571E12,0.4659784659784659,1276.1904761904761,79.17525773195877,
1.686187804546384E12,0.46153846153846145,1273.9926739926739,79.17525773195877,
1.686187804554197E12,0.4655344655344654,1273.260073260073,79.17525773195877,
1.68618780456201E12,0.46198246198246196,1269.5970695970695,79.17525773195877,
1.686187804569823E12,0.46464646464646464,1267.3992673992673,79.17525773195877,
1.686187804577636E12,0.4628704628704628,1263.003663003663,79.17525773195877,
1.686187804585449E12,0.46375846375846375,1259.3406593406592,79.17525773195877,
1.686187804593262E12,0.46375846375846375,1260.8058608058607,79.17525773195877,
1.686187804601075E12,0.4628704628704628,1259.3406593406592,79.17525773195877,
1.686187804608888E12,0.46420246420246414,1260.07326007326,79.17525773195877,
1.6861878046167007E12,0.46198246198246196,1263.003663003663,79.17525773195877,
1.6861878046245137E12,0.4650904650904651,1265.9340659340658,79.17525773195877,
1.6861878046323267E12,0.46153846153846145,1273.260073260073,79.17525773195877,
1.6861878046401396E12,0.4655344655344654,1274.7252747252746,79.17525773195877,
1.6861878046479526E12,0.4610944610944611,1276.923076923077,79.17525773195877,
1.6861878046557656E12,0.4655344655344654,1276.1904761904761,79.17525773195877,
1.6861878046635786E12,0.46153846153846145,1276.923076923077,79.17525773195877,
1.6861878046713916E12,0.4655344655344654,1275.4578754578754,79.17525773195877,
1.6861878046792046E12,0.46153846153846145,1278.3882783882782,79.17525773195877,
1.6861878046870176E12,0.4650904650904651,1276.923076923077,79.17525773195877,
1.6861878046948306E12,0.46198246198246196,1276.923076923077,79.17525773195877,
1.6861878047026436E12,0.46420246420246414,1277.6556776556777,79.17525773195877,
1.6861878047104565E12,0.4628704628704628,1276.923076923077,79.17525773195877,
1.6861878047182695E12,0.4633144633144633,1278.3882783882782,79.17525773195877,
1.6861878047260825E12,0.46375846375846375,1276.1904761904761,79.17525773195877,
1.6861878047338955E12,0.46242646242646235,1273.9926739926739,79.17525773195877,
1.6861878047417085E12,0.46464646464646464,1271.7948717948716,79.17525773195877,
1.6861878047495215E12,0.46153846153846145,1269.5970695970695,79.17525773195877,
1.6861878047573345E12,0.4650904650904651,1269.5970695970695,79.17525773195877,
1.6861878047651475E12,0.4610944610944611,1268.131868131868,79.17525773195877,
1.6861878047729604E12,0.4655344655344654,1268.131868131868,79.17525773195877,
1.6861878047807734E12,0.4610944610944611,1269.5970695970695,79.17525773195877,
1.6861878047885864E12,0.4655344655344654,1274.7252747252746,79.17525773195877,
1.6861878047963994E12,0.4610944610944611,1284.9816849816848,79.17525773195877,
1.6861878048042124E12,0.4650904650904651,1291.5750915750914,79.17525773195877,
1.6861878048120254E12,0.46153846153846145,1301.098901098901,79.17525773195877,
1.6861878048198384E12,0.46420246420246414,1312.8205128205127,79.17525773195877,
1.6861878048276514E12,0.46242646242646235,1330.4029304029302,79.17525773195877,
1.6861878048354644E12,0.46375846375846375,1355.3113553113553,79.17525773195877,
1.6861878048432773E12,0.4633144633144633,1379.4871794871794,79.17525773195877,
1.6861878048510903E12,0.4628704628704628,1408.7912087912086,79.17525773195877,
1.6861878048589033E12,0.46420246420246414,1443.956043956044,79.17525773195877,
1.686187804866716E12,0.46198246198246196,1479.120879120879,79.17525773195877,
1.686187804874529E12,0.46464646464646464,1515.7509157509157,79.17525773195877,
1.686187804882342E12,0.46153846153846145,1546.5201465201465,79.17525773195877,
1.686187804890155E12,0.4650904650904651,1573.6263736263736,79.17525773195877,
1.686187804897968E12,0.46065046065046067,1598.5347985347985,79.17525773195877,
1.686187804905781E12,0.4655344655344654,1614.6520146520145,79.17525773195877,
1.686187804913594E12,0.4610944610944611,1626.3736263736262,79.17525773195877,
1.686187804921407E12,0.4650904650904651,1630.03663003663,79.17525773195877,
1.68618780492922E12,0.46153846153846145,1625.6410256410256,76.03960396039604,
1.686187804937033E12,0.46464646464646464,1613.186813186813,76.03960396039604,
1.686187804944846E12,0.46198246198246196,1595.6043956043954,76.03960396039604,
1.686187804952659E12,0.46420246420246414,1572.8937728937728,76.03960396039604,
1.686187804960472E12,0.46242646242646235,1550.18315018315,76.03960396039604,
1.686187804968285E12,0.4628704628704628,1523.8095238095236,76.03960396039604,
1.686187804976098E12,0.4633144633144633,1499.6336996336995,76.03960396039604,
1.686187804983911E12,0.46242646242646235,1476.1904761904761,76.03960396039604,
1.6861878049917239E12,0.46420246420246414,1452.7472527472526,76.03960396039604,
1.6861878049995369E12,0.46153846153846145,1432.9670329670328,76.03960396039604,
1.6861878050073499E12,0.46464646464646464,1413.9194139194137,76.03960396039604,
1.6861878050151628E12,0.4610944610944611,1397.069597069597,76.03960396039604,
1.6861878050229758E12,0.4650904650904651,1380.952380952381,76.03960396039604,
1.6861878050307888E12,0.46065046065046067,1365.5677655677655,76.03960396039604,
1.6861878050386018E12,0.4650904650904651,1355.3113553113553,76.03960396039604,
1.6861878050464148E12,0.4610944610944611,1347.2527472527472,76.03960396039604,
1.6861878050542278E12,0.46464646464646464,1342.1245421245421,76.03960396039604,
1.6861878050620408E12,0.46153846153846145,1336.9963369963368,76.03960396039604,
1.6861878050698538E12,0.46420246420246414,1331.135531135531,76.03960396039604,
1.6861878050776667E12,0.46198246198246196,1329.6703296703297,76.03960396039604,
1.6861878050854797E12,0.4633144633144633,1326.007326007326,76.03960396039604,
1.6861878050932927E12,0.4628704628704628,1322.3443223443223,76.03960396039604,
1.6861878051011057E12,0.46242646242646235,1318.6813186813185,76.03960396039604,
1.6861878051089185E12,0.4633144633144633,1315.7509157509157,76.03960396039604,
1.6861878051167314E12,0.46153846153846145,1315.7509157509157,76.03960396039604,
1.6861878051245444E12,0.46420246420246414,1317.216117216117,76.03960396039604,
1.6861878051323574E12,0.4610944610944611,1317.216117216117,76.03960396039604,
1.6861878051401704E12,0.46464646464646464,1321.6117216117216,76.03960396039604,
1.6861878051479834E12,0.46065046065046067,1327.4725274725274,76.03960396039604,
1.6861878051557964E12,0.4650904650904651,1334.065934065934,76.03960396039604,
1.6861878051636094E12,0.46065046065046067,1344.3223443223442,76.03960396039604,
1.6861878051714224E12,0.46464646464646464,1347.985347985348,76.03960396039604,
1.6861878051792354E12,0.46065046065046067,1351.6483516483515,76.03960396039604,
1.6861878051870483E12,0.46420246420246414,1352.3809523809523,76.03960396039604,
1.6861878051948613E12,0.46153846153846145,1351.6483516483515,76.03960396039604,
1.6861878052026743E12,0.46375846375846375,1352.3809523809523,76.03960396039604,
1.6861878052104873E12,0.46198246198246196,1349.4505494505493,76.03960396039604,
1.6861878052183003E12,0.46242646242646235,1345.054945054945,76.03960396039604,
1.6861878052261133E12,0.4628704628704628,1337.7289377289376,76.03960396039604,
1.6861878052339263E12,0.46153846153846145,1328.937728937729,76.03960396039604,
1.6861878052417393E12,0.46375846375846375,1322.3443223443223,76.03960396039604,
1.6861878052495522E12,0.4610944610944611,1314.2857142857142,76.03960396039604,
1.6861878052573652E12,0.46420246420246414,1306.9597069597069,76.03960396039604,
1.6861878052651782E12,0.46065046065046067,1304.7619047619046,76.03960396039604,
1.6861878052729912E12,0.46464646464646464,1298.9010989010987,76.03960396039604,
1.6861878052808042E12,0.46065046065046067,1297.4358974358975,76.03960396039604,
1.6861878052886172E12,0.46464646464646464,1291.5750915750914,76.03960396039604,
1.6861878052964302E12,0.46065046065046067,1287.179487179487,76.03960396039604,
1.6861878053042432E12,0.46464646464646464,1282.7838827838827,76.03960396039604,
1.6861878053120562E12,0.4610944610944611,1280.5860805860805,76.03960396039604,
1.6861878053198691E12,0.46375846375846375,1281.3186813186812,76.03960396039604,
1.6861878053276821E12,0.46153846153846145,1280.5860805860805,76.03960396039604,
1.686187805335495E12,0.4633144633144633,1283.5164835164835,76.03960396039604,
1.686187805343308E12,0.46198246198246196,1284.9816849816848,76.03960396039604,
1.6861878053511208E12,0.46198246198246196,1284.2490842490843,76.03960396039604,
1.6861878053589338E12,0.4633144633144633,1284.9816849816848,76.03960396039604,
1.6861878053667468E12,0.4610944610944611,1286.4468864468863,76.03960396039604,
1.6861878053745598E12,0.46375846375846375,1284.9816849816848,76.03960396039604,
1.6861878053823728E12,0.46065046065046067,1283.5164835164835,76.03960396039604,
1.6861878053901858E12,0.46420246420246414,1282.7838827838827,76.03960396039604,
1.6861878053979988E12,0.46020646020646017,1283.5164835164835,76.03960396039604,
1.6861878054058118E12,0.46464646464646464,1287.9120879120878,76.03960396039604,
1.6861878054136248E12,0.46020646020646017,1290.8424908424909,76.03960396039604,
1.6861878054214377E12,0.46464646464646464,1293.040293040293,76.03960396039604,
1.6861878054292507E12,0.46065046065046067,1296.7032967032967,76.03960396039604,
1.6861878054370637E12,0.46420246420246414,1297.4358974358975,76.03960396039604,
1.6861878054448767E12,0.4610944610944611,1299.6336996336995,76.03960396039604,
1.6861878054526897E12,0.4633144633144633,1298.9010989010987,76.03960396039604,
1.6861878054605027E12,0.46153846153846145,1296.7032967032967,76.03960396039604,
1.6861878054683157E12,0.46242646242646235,1295.2380952380952,76.03960396039604,
1.6861878054761287E12,0.4628704628704628,1298.168498168498,76.03960396039604,
1.6861878054839417E12,0.46153846153846145,1301.8315018315018,76.03960396039604,
1.6861878054917546E12,0.4633144633144633,1302.5641025641025,76.03960396039604,
1.6861878054995676E12,0.4610944610944611,1300.3663003663003,76.03960396039604,
1.6861878055073806E12,0.46375846375846375,1296.7032967032967,76.03960396039604,
1.6861878055151936E12,0.46020646020646017,1293.040293040293,76.03960396039604,
1.6861878055230066E12,0.46420246420246414,1292.3076923076922,76.03960396039604,
1.6861878055308196E12,0.46020646020646017,1290.8424908424909,76.03960396039604,
1.6861878055386326E12,0.46420246420246414,1288.6446886446886,76.03960396039604,
1.6861878055464456E12,0.46020646020646017,1289.3772893772893,76.03960396039604,
1.6861878055542585E12,0.46420246420246414,1288.6446886446886,76.03960396039604,
1.6861878055620715E12,0.46065046065046067,1290.10989010989,76.03960396039604,
1.6861878055698845E12,0.4633144633144633,1291.5750915750914,76.03960396039604,
1.6861878055776975E12,0.4610944610944611,1295.970695970696,76.03960396039604,
1.6861878055855105E12,0.4628704628704628,1303.2967032967033,76.03960396039604,
1.6861878055933235E12,0.46198246198246196,1312.8205128205127,76.03960396039604,
1.6861878056011362E12,0.46198246198246196,1325.2747252747251,76.03960396039604,
1.6861878056089492E12,0.46242646242646235,1342.1245421245421,76.03960396039604,
1.6861878056167622E12,0.4610944610944611,1359.7069597069597,76.03960396039604,
1.6861878056245752E12,0.4633144633144633,1385.3479853479853,76.03960396039604,
1.6861878056323882E12,0.46065046065046067,1415.3846153846152,76.03960396039604,
1.6861878056402012E12,0.46375846375846375,1451.2820512820513,76.03960396039604,
1.6861878056480142E12,0.46020646020646017,1490.8424908424906,76.03960396039604,
1.6861878056558271E12,0.46420246420246414,1531.135531135531,76.03960396039604,
1.6861878056636401E12,0.4597624597624598,1569.9633699633698,76.03960396039604,
1.6861878056714531E12,0.46420246420246414,1602.9304029304028,76.03960396039604,
1.686187805679266E12,0.46020646020646017,1629.3040293040292,76.03960396039604,
1.686187805687079E12,0.46375846375846375,1649.8168498168498,76.03960396039604,
1.686187805694892E12,0.46065046065046067,1657.8754578754579,76.03960396039604,
1.686187805702705E12,0.4628704628704628,1660.07326007326,76.03960396039604,
1.686187805710518E12,0.46153846153846145,1654.9450549450548,76.03960396039604,
1.686187805718331E12,0.46242646242646235,1643.956043956044,71.11111111111111,
1.686187805726144E12,0.46198246198246196,1630.03663003663,71.11111111111111,
1.686187805733957E12,0.46153846153846145,1609.5238095238094,71.11111111111111,
1.68618780574177E12,0.4628704628704628,1588.278388278388,71.11111111111111,
1.686187805749583E12,0.46065046065046067,1561.9047619047617,71.11111111111111,
1.686187805757396E12,0.4633144633144633,1538.4615384615383,71.11111111111111,
1.686187805765209E12,0.46020646020646017,1517.216117216117,71.11111111111111,
1.686187805773022E12,0.46420246420246414,1494.5054945054944,71.11111111111111,
1.686187805780835E12,0.4597624597624598,1476.1904761904761,71.11111111111111,
1.686187805788648E12,0.46420246420246414,1459.3406593406592,71.11111111111111,
1.686187805796461E12,0.4597624597624598,1443.956043956044,71.11111111111111,
1.686187805804274E12,0.46375846375846375,1432.2344322344322,71.11111111111111,
1.686187805812087E12,0.46020646020646017,1418.3150183150183,71.11111111111111,
1.6861878058199E12,0.4633144633144633,1409.5238095238094,71.11111111111111,
1.686187805827713E12,0.46065046065046067,1399.2673992673992,71.11111111111111,
1.686187805835526E12,0.46242646242646235,1391.2087912087911,71.11111111111111,
1.6861878058433386E12,0.46153846153846145,1383.150183150183,71.11111111111111,
1.6861878058511516E12,0.46153846153846145,1375.8241758241757,71.11111111111111,
1.6861878058589646E12,0.46242646242646235,1367.7655677655678,71.11111111111111,
1.6861878058667776E12,0.46065046065046067,1360.4395604395604,71.11111111111111,
1.6861878058745906E12,0.4628704628704628,1353.113553113553,71.11111111111111,
1.6861878058824036E12,0.46020646020646017,1347.985347985348,71.11111111111111,
1.6861878058902166E12,0.4633144633144633,1344.3223443223442,71.11111111111111,
1.6861878058980295E12,0.4597624597624598,1343.5897435897434,71.11111111111111,
1.6861878059058425E12,0.46375846375846375,1342.8571428571427,71.11111111111111,
1.6861878059136555E12,0.4593184593184593,1344.3223443223442,71.11111111111111,
1.6861878059214685E12,0.46375846375846375,1345.7875457875457,71.11111111111111,
1.6861878059292815E12,0.4597624597624598,1349.4505494505493,71.11111111111111,
1.6861878059370945E12,0.4633144633144633,1351.6483516483515,71.11111111111111,
1.6861878059449075E12,0.46020646020646017,1358.974358974359,71.11111111111111,
1.6861878059527205E12,0.4628704628704628,1366.3003663003662,71.11111111111111,
1.6861878059605334E12,0.46065046065046067,1373.6263736263736,71.11111111111111,
1.6861878059683464E12,0.46198246198246196,1379.4871794871794,71.11111111111111,
1.6861878059761594E12,0.46198246198246196,1380.2197802197802,71.11111111111111,
1.6861878059839724E12,0.4610944610944611,1381.6849816849815,71.11111111111111,
1.6861878059917854E12,0.46242646242646235,1378.7545787545787,71.11111111111111,
1.6861878059995984E12,0.46020646020646017,1374.3589743589744,71.11111111111111,
1.6861878060074114E12,0.4633144633144633,1370.6959706959706,71.11111111111111,
1.6861878060152244E12,0.4597624597624598,1364.102564102564,71.11111111111111,
1.6861878060230374E12,0.46375846375846375,1358.974358974359,71.11111111111111,
1.6861878060308503E12,0.4593184593184593,1354.5787545787546,71.11111111111111,
1.6861878060386633E12,0.46375846375846375,1351.6483516483515,71.11111111111111,
1.6861878060464763E12,0.4597624597624598,1347.985347985348,71.11111111111111,
1.6861878060542893E12,0.46375846375846375,1342.8571428571427,71.11111111111111,
1.6861878060621023E12,0.4597624597624598,1334.7985347985348,71.11111111111111,
1.6861878060699153E12,0.4628704628704628,1328.2051282051282,71.11111111111111,
1.6861878060777283E12,0.46020646020646017,1323.8095238095236,71.11111111111111,
1.686187806085541E12,0.46242646242646235,1319.4139194139193,71.11111111111111,
1.686187806093354E12,0.4610944610944611,1319.4139194139193,71.11111111111111,
1.686187806101167E12,0.46153846153846145,1315.7509157509157,71.11111111111111,
1.68618780610898E12,0.46198246198246196,1314.2857142857142,71.11111111111111,
1.686187806116793E12,0.46065046065046067,1312.8205128205127,71.11111111111111,
1.686187806124606E12,0.4628704628704628,1309.89010989011,71.11111111111111,
1.686187806132419E12,0.4597624597624598,1309.1575091575091,71.11111111111111,
1.686187806140232E12,0.4633144633144633,1306.9597069597069,71.11111111111111,
1.686187806148045E12,0.4593184593184593,1304.7619047619046,71.11111111111111,
1.686187806155858E12,0.46375846375846375,1306.227106227106,71.11111111111111,
1.686187806163671E12,0.4593184593184593,1303.2967032967033,71.11111111111111,
1.686187806171484E12,0.46375846375846375,1301.8315018315018,71.11111111111111,
1.6861878061792969E12,0.4593184593184593,1296.7032967032967,71.11111111111111,
1.6861878061871099E12,0.4633144633144633,1291.5750915750914,71.11111111111111,
1.6861878061949229E12,0.4597624597624598,1289.3772893772893,71.11111111111111,
1.6861878062027358E12,0.4628704628704628,1290.10989010989,71.11111111111111,
1.6861878062105488E12,0.46065046065046067,1293.040293040293,71.11111111111111,
1.6861878062183618E12,0.46198246198246196,1293.7728937728937,71.11111111111111,
1.6861878062261748E12,0.46153846153846145,1297.4358974358975,71.11111111111111,
1.6861878062339878E12,0.4610944610944611,1299.6336996336995,71.11111111111111,
1.6861878062418008E12,0.46198246198246196,1303.2967032967033,71.11111111111111,
1.6861878062496138E12,0.46020646020646017,1304.7619047619046,71.11111111111111,
1.6861878062574268E12,0.4628704628704628,1305.4945054945053,71.11111111111111,
1.6861878062652397E12,0.4593184593184593,1304.0293040293038,71.11111111111111,
1.6861878062730527E12,0.4633144633144633,1303.2967032967033,71.11111111111111,
1.6861878062808657E12,0.4593184593184593,1301.098901098901,71.11111111111111,
1.6861878062886787E12,0.4633144633144633,1301.098901098901,71.11111111111111,
1.6861878062964917E12,0.4588744588744588,1303.2967032967033,71.11111111111111,
1.6861878063043047E12,0.4633144633144633,1303.2967032967033,71.11111111111111,
1.6861878063121177E12,0.4593184593184593,1304.7619047619046,71.11111111111111,
1.6861878063199307E12,0.4628704628704628,1305.4945054945053,71.11111111111111,
1.6861878063277437E12,0.46020646020646017,1306.227106227106,71.11111111111111,
1.6861878063355564E12,0.46198246198246196,1308.4249084249084,71.11111111111111,
1.6861878063433694E12,0.46065046065046067,1306.227106227106,71.11111111111111,
1.6861878063511824E12,0.4610944610944611,1306.227106227106,71.11111111111111,
1.6861878063589954E12,0.46153846153846145,1308.4249084249084,71.11111111111111,
1.6861878063668083E12,0.46020646020646017,1310.6227106227104,71.11111111111111,
1.6861878063746213E12,0.46242646242646235,1313.5531135531135,71.11111111111111,
1.6861878063824343E12,0.4597624597624598,1313.5531135531135,71.11111111111111,
1.6861878063902473E12,0.4628704628704628,1312.8205128205127,71.11111111111111,
1.6861878063980603E12,0.4588744588744588,1312.8205128205127,71.11111111111111,
1.6861878064058733E12,0.4633144633144633,1313.5531135531135,71.11111111111111,
1.6861878064136863E12,0.4588744588744588,1315.018315018315,71.11111111111111,
1.6861878064214993E12,0.4633144633144633,1312.8205128205127,71.11111111111111,
1.6861878064293123E12,0.4588744588744588,1315.7509157509157,71.11111111111111,
1.6861878064371252E12,0.4628704628704628,1318.6813186813185,71.11111111111111,
1.6861878064449382E12,0.4593184593184593,1323.076923076923,71.11111111111111,
1.6861878064527512E12,0.46242646242646235,1333.3333333333333,71.11111111111111,
1.6861878064605642E12,0.4597624597624598,1342.1245421245421,71.11111111111111,
1.6861878064683772E12,0.46153846153846145,1353.8461538461538,71.11111111111111,
1.6861878064761902E12,0.46065046065046067,1369.9633699633698,71.11111111111111,
1.6861878064840032E12,0.46065046065046067,1389.0109890109889,71.11111111111111,
1.6861878064918162E12,0.46153846153846145,1416.117216117216,71.11111111111111,
1.6861878064996292E12,0.4597624597624598,1444.6886446886447,76.03960396039604,
1.6861878065074421E12,0.46242646242646235,1478.3882783882782,76.03960396039604,
1.6861878065152551E12,0.4588744588744588,1515.7509157509157,76.03960396039604,
1.686187806523068E12,0.4628704628704628,1551.6483516483515,76.03960396039604,
1.686187806530881E12,0.4588744588744588,1583.8827838827838,76.03960396039604,
1.686187806538694E12,0.4633144633144633,1613.9194139194137,76.03960396039604,
1.686187806546507E12,0.4588744588744588,1635.164835164835,76.03960396039604,
1.68618780655432E12,0.4628704628704628,1650.5494505494505,76.03960396039604,
1.686187806562133E12,0.4593184593184593,1655.6776556776556,76.03960396039604,
1.686187806569946E12,0.46242646242646235,1653.4798534798533,76.03960396039604,
1.6861878065777588E12,0.4597624597624598,1646.8864468864467,76.03960396039604,
1.6861878065855718E12,0.46198246198246196,1631.5018315018315,76.03960396039604,
1.6861878065933848E12,0.46020646020646017,1611.7216117216117,76.03960396039604,
1.6861878066011978E12,0.4610944610944611,1590.4761904761904,76.03960396039604,
1.6861878066090107E12,0.4610944610944611,1568.4981684981683,76.03960396039604,
1.6861878066168237E12,0.46020646020646017,1548.7179487179485,76.03960396039604,
1.6861878066246367E12,0.46198246198246196,1528.2051282051282,76.03960396039604,
1.6861878066324497E12,0.4593184593184593,1507.6923076923076,76.03960396039604,
1.6861878066402627E12,0.46242646242646235,1488.6446886446886,76.03960396039604,
1.6861878066480757E12,0.4588744588744588,1471.062271062271,76.03960396039604,
1.6861878066558887E12,0.4628704628704628,1459.3406593406592,76.03960396039604,
1.6861878066637017E12,0.4588744588744588,1449.084249084249,76.03960396039604,
1.6861878066715146E12,0.4628704628704628,1443.2234432234432,76.03960396039604,
1.6861878066793276E12,0.45843045843045843,1437.3626373626373,76.03960396039604,
1.6861878066871406E12,0.4628704628704628,1429.3040293040292,76.03960396039604,
1.6861878066949536E12,0.4588744588744588,1422.7106227106226,76.03960396039604,
1.6861878067027666E12,0.46198246198246196,1413.9194139194137,76.03960396039604,
1.6861878067105796E12,0.4597624597624598,1405.128205128205,76.03960396039604,
1.6861878067183926E12,0.46153846153846145,1398.5347985347985,76.03960396039604,
1.6861878067262056E12,0.46065046065046067,1391.2087912087911,76.03960396039604,
1.6861878067340186E12,0.46065046065046067,1386.080586080586,76.03960396039604,
1.6861878067418315E12,0.46153846153846145,1380.952380952381,76.03960396039604,
1.6861878067496445E12,0.4597624597624598,1377.2893772893772,76.03960396039604,
1.6861878067574575E12,0.46198246198246196,1378.021978021978,76.03960396039604,
1.6861878067652705E12,0.4588744588744588,1378.021978021978,76.03960396039604,
1.6861878067730835E12,0.46242646242646235,1377.2893772893772,76.03960396039604,
1.6861878067808965E12,0.45843045843045843,1378.7545787545787,76.03960396039604,
1.6861878067887095E12,0.4628704628704628,1379.4871794871794,76.03960396039604,
1.6861878067965225E12,0.45843045843045843,1377.2893772893772,76.03960396039604,
1.6861878068043354E12,0.4628704628704628,1375.091575091575,76.03960396039604,
1.6861878068121484E12,0.4588744588744588,1375.091575091575,76.03960396039604,
1.6861878068199612E12,0.46242646242646235,1378.021978021978,76.03960396039604,
1.6861878068277742E12,0.4593184593184593,1377.2893772893772,76.03960396039604,
1.6861878068355872E12,0.46153846153846145,1378.021978021978,76.03960396039604,
1.6861878068434001E12,0.46020646020646017,1378.7545787545787,76.03960396039604,
1.6861878068512131E12,0.46065046065046067,1377.2893772893772,76.03960396039604,
1.6861878068590261E12,0.46065046065046067,1375.8241758241757,76.03960396039604,
1.686187806866839E12,0.46020646020646017,1372.161172161172,76.03960396039604,
1.686187806874652E12,0.46198246198246196,1370.6959706959706,76.03960396039604,
1.686187806882465E12,0.4593184593184593,1368.4981684981683,76.03960396039604,
1.686187806890278E12,0.46242646242646235,1365.5677655677655,76.03960396039604,
1.686187806898091E12,0.4588744588744588,1364.8351648351647,76.03960396039604,
1.686187806905904E12,0.4628704628704628,1361.1721611721612,76.03960396039604,
1.686187806913717E12,0.45843045843045843,1357.5091575091574,76.03960396039604,
1.68618780692153E12,0.4628704628704628,1352.3809523809523,76.03960396039604,
1.686187806929343E12,0.45843045843045843,1345.054945054945,76.03960396039604,
1.686187806937156E12,0.46242646242646235,1338.4615384615383,76.03960396039604,
1.686187806944969E12,0.4588744588744588,1330.4029304029302,76.03960396039604,
1.686187806952782E12,0.46198246198246196,1322.3443223443223,76.03960396039604,
1.686187806960595E12,0.4593184593184593,1317.216117216117,76.03960396039604,
1.686187806968408E12,0.4610944610944611,1315.7509157509157,76.03960396039604,
1.686187806976221E12,0.46020646020646017,1314.2857142857142,76.03960396039604,
1.686187806984034E12,0.46065046065046067,1316.4835164835165,76.03960396039604,
1.686187806991847E12,0.4610944610944611,1317.9487179487178,76.03960396039604,
1.68618780699966E12,0.4597624597624598,1319.4139194139193,76.03960396039604,
1.686187807007473E12,0.46198246198246196,1318.6813186813185,76.03960396039604,
1.686187807015286E12,0.4588744588744588,1319.4139194139193,76.03960396039604,
1.6861878070230989E12,0.46242646242646235,1323.076923076923,76.03960396039604,
1.6861878070309119E12,0.45843045843045843,1323.8095238095236,76.03960396039604,
1.6861878070387249E12,0.46242646242646235,1325.2747252747251,76.03960396039604,
1.6861878070465378E12,0.45843045843045843,1323.076923076923,76.03960396039604,
1.6861878070543508E12,0.46242646242646235,1320.8791208791208,76.03960396039604,
1.6861878070621638E12,0.45843045843045843,1323.076923076923,76.03960396039604,
1.6861878070699766E12,0.46242646242646235,1323.076923076923,76.03960396039604,
1.6861878070777896E12,0.4588744588744588,1326.7399267399267,76.03960396039604,
1.6861878070856025E12,0.46153846153846145,1328.2051282051282,76.03960396039604,
1.6861878070934155E12,0.4597624597624598,1329.6703296703297,76.03960396039604,
1.6861878071012285E12,0.46065046065046067,1331.135531135531,76.03960396039604,
1.6861878071090415E12,0.46065046065046067,1328.937728937729,76.03960396039604,
1.6861878071168545E12,0.4597624597624598,1324.5421245421244,76.03960396039604,
1.6861878071246675E12,0.46153846153846145,1321.6117216117216,76.03960396039604,
1.6861878071324805E12,0.4588744588744588,1320.14652014652,76.03960396039604,
1.6861878071402935E12,0.46198246198246196,1320.8791208791208,76.03960396039604,
1.6861878071481064E12,0.45843045843045843,1318.6813186813185,76.03960396039604,
1.6861878071559194E12,0.46242646242646235,1315.7509157509157,76.03960396039604,
1.6861878071637324E12,0.457986457986458,1313.5531135531135,76.03960396039604,
1.6861878071715454E12,0.46242646242646235,1312.087912087912,76.03960396039604,
1.6861878071793584E12,0.45843045843045843,1312.8205128205127,76.03960396039604,
1.6861878071871714E12,0.46242646242646235,1311.3553113553112,76.03960396039604,
1.6861878071949844E12,0.4588744588744588,1311.3553113553112,76.03960396039604,
1.6861878072027974E12,0.46198246198246196,1309.1575091575091,76.03960396039604,
1.6861878072106104E12,0.4593184593184593,1307.6923076923076,76.03960396039604,
1.6861878072184233E12,0.4610944610944611,1307.6923076923076,76.03960396039604,
1.6861878072262363E12,0.4597624597624598,1311.3553113553112,76.03960396039604,
1.6861878072340493E12,0.46020646020646017,1312.8205128205127,76.03960396039604,
1.6861878072418623E12,0.46065046065046067,1314.2857142857142,76.03960396039604,
1.6861878072496753E12,0.4593184593184593,1317.216117216117,76.03960396039604,
1.6861878072574883E12,0.46153846153846145,1318.6813186813185,76.03960396039604,
1.6861878072653013E12,0.45843045843045843,1323.8095238095236,76.03960396039604,
1.6861878072731143E12,0.46198246198246196,1323.8095238095236,76.03960396039604,
1.6861878072809272E12,0.457986457986458,1325.2747252747251,76.03960396039604,
1.6861878072887402E12,0.46242646242646235,1326.7399267399267,76.03960396039604,
1.6861878072965532E12,0.457986457986458,1326.7399267399267,76.03960396039604,
1.6861878073043662E12,0.46242646242646235,1331.135531135531,76.03960396039604,
1.686187807312179E12,0.45843045843045843,1330.4029304029302,76.03960396039604,
1.686187807319992E12,0.46198246198246196,1328.2051282051282,76.03960396039604,
1.686187807327805E12,0.45843045843045843,1326.7399267399267,76.03960396039604,
1.686187807335618E12,0.46153846153846145,1326.007326007326,76.03960396039604,
1.686187807343431E12,0.4597624597624598,1328.2051282051282,76.03960396039604,
1.686187807351244E12,0.46065046065046067,1330.4029304029302,76.03960396039604,
1.686187807359057E12,0.46020646020646017,1339.194139194139,76.03960396039604,
1.6861878073668699E12,0.4597624597624598,1350.18315018315,76.8,
1.6861878073746829E12,0.4610944610944611,1362.6373626373625,76.8,
1.6861878073824958E12,0.4593184593184593,1378.7545787545787,76.8,
1.6861878073903088E12,0.46198246198246196,1399.2673992673992,76.8,
1.6861878073981218E12,0.45843045843045843,1423.4432234432234,76.8,
1.6861878074059348E12,0.46242646242646235,1454.212454212454,76.8,
1.6861878074137478E12,0.45843045843045843,1487.9120879120878,76.8,
1.6861878074215608E12,0.46242646242646235,1523.8095238095236,76.8,
1.6861878074293738E12,0.45843045843045843,1552.3809523809523,76.8,
1.6861878074371868E12,0.46242646242646235,1577.2893772893772,76.8,
1.6861878074449998E12,0.4588744588744588,1594.8717948717947,76.8,
1.6861878074528127E12,0.46198246198246196,1608.058608058608,76.8,
1.6861878074606257E12,0.4593184593184593,1616.117216117216,76.8,
1.6861878074684387E12,0.4610944610944611,1621.9780219780218,76.8,
1.6861878074762517E12,0.46020646020646017,1619.047619047619,76.8,
1.6861878074840647E12,0.46065046065046067,1610.2564102564102,76.8,
1.6861878074918777E12,0.46065046065046067,1596.3369963369962,76.8,
1.6861878074996907E12,0.4597624597624598,1579.4871794871794,76.8,
1.6861878075075037E12,0.46153846153846145,1561.9047619047617,76.8,
1.6861878075153167E12,0.4588744588744588,1545.054945054945,76.8,
1.6861878075231296E12,0.46198246198246196,1524.5421245421244,76.8,
1.6861878075309426E12,0.45843045843045843,1504.7619047619046,76.8,
1.6861878075387556E12,0.4628704628704628,1485.7142857142856,76.8,
1.6861878075465686E12,0.45843045843045843,1470.3296703296703,76.8,
1.6861878075543816E12,0.46242646242646235,1456.4102564102564,76.8,
1.6861878075621943E12,0.45843045843045843,1443.956043956044,76.8,
1.6861878075700073E12,0.46242646242646235,1434.4322344322343,76.8,
1.6861878075778203E12,0.4588744588744588,1424.1758241758241,76.8,
1.6861878075856333E12,0.46153846153846145,1417.5824175824175,76.8,
1.6861878075934463E12,0.4593184593184593,1411.7216117216117,76.8,
1.6861878076012593E12,0.4610944610944611,1405.8608058608058,76.8,
1.6861878076090723E12,0.46020646020646017,1400.0,76.8,
1.6861878076168853E12,0.4597624597624598,1391.9413919413919,76.8,
1.6861878076246982E12,0.4610944610944611,1383.8827838827838,76.8,
1.6861878076325112E12,0.4588744588744588,1374.3589743589744,76.8,
1.6861878076403242E12,0.46153846153846145,1368.4981684981683,76.8,
1.6861878076481372E12,0.45843045843045843,1366.3003663003662,76.8,
1.6861878076559502E12,0.46198246198246196,1365.5677655677655,76.8,
1.6861878076637632E12,0.457986457986458,1365.5677655677655,76.8,
1.6861878076715762E12,0.46242646242646235,1364.8351648351647,76.8,
1.6861878076793892E12,0.457986457986458,1367.032967032967,76.8,
1.6861878076872021E12,0.46242646242646235,1369.230769230769,76.8,
1.6861878076950151E12,0.45843045843045843,1372.8937728937728,76.8,
1.6861878077028281E12,0.46198246198246196,1375.091575091575,76.8,
1.686187807710641E12,0.4588744588744588,1380.2197802197802,76.8,
1.686187807718454E12,0.4610944610944611,1382.4175824175823,76.8,
1.686187807726267E12,0.4593184593184593,1386.080586080586,76.8,
1.68618780773408E12,0.46020646020646017,1389.7435897435896,76.8,
1.686187807741893E12,0.46020646020646017,1391.2087912087911,76.8,
1.686187807749706E12,0.4593184593184593,1394.8717948717947,76.8,
1.686187807757519E12,0.4610944610944611,1394.8717948717947,76.8,
1.686187807765332E12,0.45843045843045843,1394.139194139194,76.8,
1.686187807773145E12,0.46153846153846145,1391.9413919413919,76.8,
1.686187807780958E12,0.457986457986458,1388.278388278388,76.8,
1.686187807788771E12,0.46198246198246196,1386.080586080586,76.8,
1.686187807796584E12,0.457986457986458,1382.4175824175823,76.8,
1.6861878078043967E12,0.46198246198246196,1377.2893772893772,76.8,
1.6861878078122097E12,0.457986457986458,1372.161172161172,76.8,
1.6861878078200227E12,0.46198246198246196,1364.102564102564,76.8,
1.6861878078278357E12,0.45843045843045843,1358.974358974359,76.8,
1.6861878078356487E12,0.4610944610944611,1350.18315018315,76.8,
1.6861878078434617E12,0.4588744588744588,1341.3919413919414,76.8,
1.6861878078512747E12,0.46020646020646017,1334.7985347985348,76.8,
1.6861878078590876E12,0.4597624597624598,1330.4029304029302,76.8,
1.6861878078669006E12,0.4593184593184593,1331.8681318681317,76.8,
1.6861878078747136E12,0.46065046065046067,1328.937728937729,76.8,
1.6861878078825266E12,0.45843045843045843,1326.7399267399267,76.8,
1.6861878078903396E12,0.4610944610944611,1323.076923076923,76.8,
1.6861878078981526E12,0.457986457986458,1323.8095238095236,76.8,
1.6861878079059656E12,0.46153846153846145,1326.7399267399267,76.8,
1.6861878079137786E12,0.45754245754245754,1332.6007326007325,76.8,
1.6861878079215916E12,0.46153846153846145,1335.5311355311355,76.8,
1.6861878079294045E12,0.45754245754245754,1336.263736263736,76.8,
1.6861878079372175E12,0.46153846153846145,1338.4615384615383,76.8,
1.6861878079450305E12,0.45754245754245754,1340.6593406593406,76.8,
1.6861878079528435E12,0.4610944610944611,1344.3223443223442,76.8,
1.6861878079606565E12,0.45843045843045843,1342.8571428571427,76.8,
1.6861878079684695E12,0.46065046065046067,1342.8571428571427,76.8,
1.6861878079762825E12,0.4588744588744588,1344.3223443223442,76.8,
1.6861878079840955E12,0.4597624597624598,1346.5201465201465,76.8,
1.6861878079919084E12,0.4597624597624598,1347.2527472527472,76.8,
1.6861878079997214E12,0.4588744588744588,1342.8571428571427,76.8,
1.6861878080075344E12,0.46065046065046067,1339.9267399267399,76.8,
1.6861878080153474E12,0.457986457986458,1334.7985347985348,76.8,
1.6861878080231604E12,0.4610944610944611,1330.4029304029302,76.8,
1.6861878080309734E12,0.45754245754245754,1331.135531135531,76.8,
1.6861878080387864E12,0.46153846153846145,1328.937728937729,76.8,
1.686187808046599E12,0.45754245754245754,1326.7399267399267,76.8,
1.686187808054412E12,0.46153846153846145,1327.4725274725274,76.8,
1.686187808062225E12,0.45754245754245754,1326.7399267399267,76.8,
1.686187808070038E12,0.46153846153846145,1329.6703296703297,76.8,
1.686187808077851E12,0.45754245754245754,1329.6703296703297,76.8,
1.686187808085664E12,0.46065046065046067,1328.937728937729,76.8,
1.686187808093477E12,0.45843045843045843,1330.4029304029302,76.8,
1.68618780810129E12,0.4597624597624598,1334.065934065934,76.8,
1.686187808109103E12,0.4588744588744588,1344.3223443223442,76.8,
1.686187808116916E12,0.4588744588744588,1353.113553113553,76.8,
1.686187808124729E12,0.4597624597624598,1367.032967032967,76.8,
1.686187808132542E12,0.457986457986458,1383.150183150183,76.8,
1.686187808140355E12,0.46065046065046067,1402.9304029304028,76.8,
1.686187808148168E12,0.45754245754245754,1424.9084249084249,76.8,
1.686187808155981E12,0.4610944610944611,1451.2820512820513,76.8,
1.686187808163794E12,0.4570984570984571,1478.3882783882782,76.8,
1.686187808171607E12,0.4610944610944611,1510.6227106227104,76.8,
1.68618780817942E12,0.4570984570984571,1544.3223443223442,76.8,
1.686187808187233E12,0.4610944610944611,1573.6263736263736,76.8,
1.686187808195046E12,0.45754245754245754,1600.7326007326005,76.8,
1.686187808202859E12,0.46065046065046067,1621.9780219780218,76.8,
1.6861878082106719E12,0.457986457986458,1634.4322344322343,76.8,
1.6861878082184849E12,0.46020646020646017,1640.2930402930401,76.8,
1.6861878082262979E12,0.45843045843045843,1638.095238095238,76.8,
1.6861878082341108E12,0.4593184593184593,1631.5018315018315,76.8,
1.6861878082419238E12,0.4593184593184593,1618.3150183150183,76.8,
1.6861878082497368E12,0.45843045843045843,1600.7326007326005,76.8,
1.6861878082575498E12,0.46020646020646017,1582.4175824175823,76.8,
1.6861878082653628E12,0.457986457986458,1563.3699633699632,69.1891891891892,
1.6861878082731758E12,0.46065046065046067,1545.054945054945,69.1891891891892,
1.6861878082809888E12,0.4570984570984571,1524.5421245421244,69.1891891891892,
1.6861878082888018E12,0.4610944610944611,1506.227106227106,69.1891891891892,
1.6861878082966145E12,0.4570984570984571,1488.6446886446886,69.1891891891892,
1.6861878083044275E12,0.4610944610944611,1473.9926739926739,69.1891891891892,
1.6861878083122405E12,0.4570984570984571,1465.9340659340658,69.1891891891892,
1.6861878083200535E12,0.4610944610944611,1455.6776556776556,69.1891891891892,
1.6861878083278665E12,0.4570984570984571,1446.153846153846,69.1891891891892,
1.6861878083356794E12,0.46020646020646017,1435.164835164835,69.1891891891892,
1.6861878083434924E12,0.457986457986458,1422.7106227106226,69.1891891891892,
1.6861878083513054E12,0.4597624597624598,1413.9194139194137,69.1891891891892,
1.6861878083591184E12,0.45843045843045843,1406.5934065934066,69.1891891891892,
1.6861878083669314E12,0.4588744588744588,1402.9304029304028,69.1891891891892,
1.6861878083747444E12,0.4593184593184593,1398.5347985347985,69.1891891891892,
1.6861878083825574E12,0.457986457986458,1395.6043956043954,69.1891891891892,
1.6861878083903704E12,0.46020646020646017,1391.9413919413919,69.1891891891892,
1.6861878083981833E12,0.4570984570984571,1391.9413919413919,69.1891891891892,
1.6861878084059963E12,0.46065046065046067,1389.0109890109889,69.1891891891892,
1.6861878084138093E12,0.4570984570984571,1389.0109890109889,69.1891891891892,
1.6861878084216223E12,0.4610944610944611,1388.278388278388,69.1891891891892,
1.6861878084294353E12,0.45665445665445664,1386.080586080586,69.1891891891892,
1.6861878084372483E12,0.4610944610944611,1386.080586080586,69.1891891891892,
1.6861878084450613E12,0.45665445665445664,1383.8827838827838,69.1891891891892,
1.6861878084528743E12,0.46065046065046067,1381.6849816849815,69.1891891891892,
1.6861878084606873E12,0.45754245754245754,1383.150183150183,69.1891891891892,
1.6861878084685002E12,0.46020646020646017,1383.150183150183,69.1891891891892,
1.6861878084763132E12,0.45843045843045843,1387.5457875457876,69.1891891891892,
1.6861878084841262E12,0.4593184593184593,1389.7435897435896,69.1891891891892,
1.6861878084919392E12,0.4588744588744588,1391.2087912087911,69.1891891891892,
1.6861878084997522E12,0.45843045843045843,1394.139194139194,69.1891891891892,
1.6861878085075652E12,0.46020646020646017,1393.4065934065934,69.1891891891892,
1.6861878085153782E12,0.45754245754245754,1391.9413919413919,69.1891891891892,
1.6861878085231912E12,0.46065046065046067,1387.5457875457876,69.1891891891892,
1.6861878085310042E12,0.4570984570984571,1383.150183150183,69.1891891891892,
1.686187808538817E12,0.4610944610944611,1378.021978021978,69.1891891891892,
1.68618780854663E12,0.4570984570984571,1375.091575091575,69.1891891891892,
1.6861878085544429E12,0.4610944610944611,1372.8937728937728,69.1891891891892,
1.6861878085622559E12,0.45665445665445664,1366.3003663003662,69.1891891891892,
1.6861878085700688E12,0.46065046065046067,1363.3699633699632,69.1891891891892,
1.6861878085778818E12,0.4570984570984571,1362.6373626373625,69.1891891891892,
1.6861878085856948E12,0.46020646020646017,1360.4395604395604,69.1891891891892,
1.6861878085935078E12,0.457986457986458,1361.1721611721612,69.1891891891892,
1.6861878086013208E12,0.4593184593184593,1356.7765567765566,69.1891891891892,
1.6861878086091338E12,0.45843045843045843,1351.6483516483515,69.1891891891892,
1.6861878086169468E12,0.4588744588744588,1345.054945054945,69.1891891891892,
1.6861878086247598E12,0.4593184593184593,1339.194139194139,69.1891891891892,
1.6861878086325728E12,0.457986457986458,1331.8681318681317,69.1891891891892,
1.6861878086403857E12,0.4597624597624598,1326.007326007326,69.1891891891892,
1.6861878086481987E12,0.4570984570984571,1319.4139194139193,69.1891891891892,
1.6861878086560117E12,0.46065046065046067,1316.4835164835165,69.1891891891892,
1.6861878086638247E12,0.45665445665445664,1315.018315018315,69.1891891891892,
1.6861878086716377E12,0.4610944610944611,1317.216117216117,69.1891891891892,
1.6861878086794507E12,0.45665445665445664,1323.076923076923,69.1891891891892,
1.6861878086872637E12,0.4610944610944611,1326.7399267399267,69.1891891891892,
1.6861878086950767E12,0.45665445665445664,1330.4029304029302,69.1891891891892,
1.6861878087028896E12,0.46065046065046067,1331.8681318681317,69.1891891891892,
1.6861878087107026E12,0.4570984570984571,1332.6007326007325,69.1891891891892,
1.6861878087185156E12,0.4597624597624598,1332.6007326007325,69.1891891891892,
1.6861878087263286E12,0.457986457986458,1331.8681318681317,69.1891891891892,
1.6861878087341416E12,0.4588744588744588,1328.937728937729,69.1891891891892,
1.6861878087419546E12,0.45843045843045843,1326.007326007326,69.1891891891892,
1.6861878087497676E12,0.457986457986458,1323.8095238095236,69.1891891891892,
1.6861878087575806E12,0.4597624597624598,1324.5421245421244,69.1891891891892,
1.6861878087653936E12,0.4570984570984571,1323.8095238095236,69.1891891891892,
1.6861878087732065E12,0.4597624597624598,1324.5421245421244,69.1891891891892,
1.6861878087810193E12,0.45665445665445664,1325.2747252747251,69.1891891891892,
1.6861878087888323E12,0.46065046065046067,1327.4725274725274,69.1891891891892,
1.6861878087966453E12,0.45665445665445664,1331.135531135531,69.1891891891892,
1.6861878088044583E12,0.46065046065046067,1330.4029304029302,69.1891891891892,
1.6861878088122712E12,0.4562104562104562,1328.2051282051282,69.1891891891892,
1.6861878088200842E12,0.46065046065046067,1323.8095238095236,69.1891891891892,
1.6861878088278972E12,0.45665445665445664,1319.4139194139193,69.1891891891892,
1.6861878088357102E12,0.4597624597624598,1315.018315018315,69.1891891891892,
1.6861878088435232E12,0.4570984570984571,1314.2857142857142,69.1891891891892,
1.6861878088513362E12,0.4588744588744588,1313.5531135531135,69.1891891891892,
1.6861878088591492E12,0.457986457986458,1315.018315018315,69.1891891891892,
1.6861878088669622E12,0.457986457986458,1315.7509157509157,69.1891891891892,
1.6861878088747751E12,0.4588744588744588,1320.14652014652,69.1891891891892,
1.6861878088825881E12,0.45754245754245754,1328.937728937729,69.1891891891892,
1.6861878088904011E12,0.4593184593184593,1334.7985347985348,69.1891891891892,
1.686187808898214E12,0.45665445665445664,1342.8571428571427,69.1891891891892,
1.686187808906027E12,0.46020646020646017,1356.0439560439559,69.1891891891892,
1.68618780891384E12,0.4562104562104562,1372.161172161172,69.1891891891892,
1.686187808921653E12,0.46020646020646017,1394.8717948717947,69.1891891891892,
1.686187808929466E12,0.4562104562104562,1419.7802197802198,69.1891891891892,
1.686187808937279E12,0.46020646020646017,1447.6190476190475,69.1891891891892,
1.686187808945092E12,0.4562104562104562,1482.7838827838827,69.1891891891892,
1.686187808952905E12,0.46020646020646017,1520.14652014652,69.1891891891892,
1.686187808960718E12,0.45665445665445664,1561.1721611721612,69.1891891891892,
1.686187808968531E12,0.4593184593184593,1597.8021978021977,69.1891891891892,
1.686187808976344E12,0.45754245754245754,1629.3040293040292,69.1891891891892,
1.686187808984157E12,0.45843045843045843,1655.6776556776556,69.1891891891892,
1.68618780899197E12,0.45843045843045843,1677.6556776556774,69.1891891891892,
1.686187808999783E12,0.457986457986458,1695.2380952380952,69.1891891891892,
1.686187809007596E12,0.4588744588744588,1703.296703296703,69.1891891891892,
1.686187809015409E12,0.4570984570984571,1704.7619047619046,69.1891891891892,
1.686187809023222E12,0.4597624597624598,1701.098901098901,66.78260869565217,
1.6861878090310347E12,0.4562104562104562,1687.9120879120878,66.78260869565217,
1.6861878090388477E12,0.46020646020646017,1674.7252747252746,66.78260869565217,
1.6861878090466606E12,0.4562104562104562,1654.212454212454,66.78260869565217,
1.6861878090544736E12,0.46020646020646017,1630.03663003663,66.78260869565217,
1.6861878090622866E12,0.45576645576645575,1606.5934065934066,66.78260869565217,
1.6861878090700996E12,0.46020646020646017,1583.8827838827838,66.78260869565217,
1.6861878090779126E12,0.4562104562104562,1566.3003663003662,66.78260869565217,
1.6861878090857256E12,0.4597624597624598,1549.4505494505493,66.78260869565217,
1.6861878090935386E12,0.45665445665445664,1534.065934065934,66.78260869565217,
1.6861878091013516E12,0.4588744588744588,1523.0769230769229,66.78260869565217,
1.6861878091091646E12,0.45754245754245754,1516.4835164835163,66.78260869565217,
1.6861878091169775E12,0.457986457986458,1510.6227106227104,66.78260869565217,
1.6861878091247905E12,0.45843045843045843,1506.9597069597069,66.78260869565217,
1.6861878091326035E12,0.4570984570984571,1501.8315018315018,66.78260869565217,
1.6861878091404165E12,0.4593184593184593,1492.3076923076922,66.78260869565217,
1.6861878091482295E12,0.45665445665445664,1481.3186813186812,66.78260869565217,
1.6861878091560425E12,0.4597624597624598,1471.062271062271,66.78260869565217,
1.6861878091638555E12,0.4562104562104562,1463.7362637362637,66.78260869565217,
1.6861878091716685E12,0.46020646020646017,1452.7472527472526,66.78260869565217,
1.6861878091794814E12,0.45576645576645575,1443.956043956044,66.78260869565217,
1.6861878091872944E12,0.46020646020646017,1436.6300366300366,66.78260869565217,
1.6861878091951074E12,0.45576645576645575,1432.2344322344322,66.78260869565217,
1.6861878092029204E12,0.4597624597624598,1430.03663003663,66.78260869565217,
1.6861878092107334E12,0.4562104562104562,1427.8388278388277,66.78260869565217,
1.6861878092185464E12,0.4593184593184593,1425.6410256410256,66.78260869565217,
1.6861878092263594E12,0.4570984570984571,1423.4432234432234,66.78260869565217,
1.6861878092341724E12,0.45843045843045843,1425.6410256410256,66.78260869565217,
1.6861878092419854E12,0.457986457986458,1430.7692307692307,66.78260869565217,
1.6861878092497983E12,0.45754245754245754,1432.9670329670328,66.78260869565217,
1.6861878092576113E12,0.45843045843045843,1436.6300366300366,66.78260869565217,
1.6861878092654243E12,0.45665445665445664,1435.164835164835,66.78260869565217,
1.686187809273237E12,0.4593184593184593,1432.9670329670328,66.78260869565217,
1.68618780928105E12,0.4562104562104562,1431.5018315018315,66.78260869565217,
1.686187809288863E12,0.4597624597624598,1427.106227106227,66.78260869565217,
1.686187809296676E12,0.45576645576645575,1423.4432234432234,66.78260869565217,
1.686187809304489E12,0.46020646020646017,1420.5128205128203,66.78260869565217,
1.686187809312302E12,0.45576645576645575,1416.8498168498168,66.78260869565217,
1.686187809320115E12,0.4597624597624598,1410.989010989011,66.78260869565217,
1.686187809327928E12,0.4562104562104562,1405.8608058608058,66.78260869565217,
1.686187809335741E12,0.4597624597624598,1397.069597069597,66.78260869565217,
1.686187809343554E12,0.45665445665445664,1386.8131868131868,66.78260869565217,
1.686187809351367E12,0.4588744588744588,1376.5567765567764,66.78260869565217,
1.68618780935918E12,0.45754245754245754,1368.4981684981683,66.78260869565217,
1.686187809366993E12,0.457986457986458,1361.904761904762,66.78260869565217,
1.686187809374806E12,0.457986457986458,1354.5787545787546,66.78260869565217,
1.686187809382619E12,0.4570984570984571,1348.7179487179487,66.78260869565217,
1.686187809390432E12,0.4588744588744588,1345.7875457875457,66.78260869565217,
1.6861878093982449E12,0.4562104562104562,1342.8571428571427,66.78260869565217,
1.6861878094060579E12,0.4593184593184593,1342.1245421245421,66.78260869565217,
1.6861878094138708E12,0.45576645576645575,1338.4615384615383,66.78260869565217,
1.6861878094216838E12,0.4597624597624598,1334.7985347985348,66.78260869565217,
1.6861878094294968E12,0.4553224553224553,1332.6007326007325,66.78260869565217,
1.6861878094373098E12,0.4597624597624598,1331.135531135531,66.78260869565217,
1.6861878094451228E12,0.45576645576645575,1331.8681318681317,66.78260869565217,
1.6861878094529358E12,0.4593184593184593,1329.6703296703297,66.78260869565217,
1.6861878094607488E12,0.4562104562104562,1327.4725274725274,66.78260869565217,
1.6861878094685618E12,0.4588744588744588,1326.007326007326,66.78260869565217,
1.6861878094763748E12,0.45665445665445664,1326.007326007326,66.78260869565217,
1.6861878094841877E12,0.45843045843045843,1329.6703296703297,66.78260869565217,
1.6861878094920007E12,0.45754245754245754,1330.4029304029302,66.78260869565217,
1.6861878094998137E12,0.45754245754245754,1332.6007326007325,66.78260869565217,
1.6861878095076267E12,0.45843045843045843,1335.5311355311355,66.78260869565217,
1.6861878095154397E12,0.45665445665445664,1336.9963369963368,66.78260869565217,
1.6861878095232524E12,0.4588744588744588,1339.194139194139,66.78260869565217,
1.6861878095310654E12,0.45576645576645575,1337.7289377289376,66.78260869565217,
1.6861878095388784E12,0.4593184593184593,1336.9963369963368,66.78260869565217,
1.6861878095466914E12,0.45576645576645575,1335.5311355311355,66.78260869565217,
1.6861878095545044E12,0.4597624597624598,1334.7985347985348,66.78260869565217,
1.6861878095623174E12,0.4553224553224553,1333.3333333333333,66.78260869565217,
1.6861878095701304E12,0.4597624597624598,1333.3333333333333,66.78260869565217,
1.6861878095779434E12,0.45576645576645575,1331.135531135531,66.78260869565217,
1.6861878095857563E12,0.4593184593184593,1328.2051282051282,66.78260869565217,
1.6861878095935693E12,0.4562104562104562,1326.7399267399267,66.78260869565217,
1.6861878096013823E12,0.45843045843045843,1324.5421245421244,66.78260869565217,
1.6861878096091953E12,0.4570984570984571,1323.076923076923,66.78260869565217,
1.6861878096170083E12,0.45754245754245754,1320.14652014652,66.78260869565217,
1.6861878096248213E12,0.45754245754245754,1318.6813186813185,66.78260869565217,
1.6861878096326343E12,0.45665445665445664,1318.6813186813185,66.78260869565217,
1.6861878096404473E12,0.45843045843045843,1319.4139194139193,66.78260869565217,
1.6861878096482603E12,0.4562104562104562,1323.8095238095236,66.78260869565217,
1.6861878096560732E12,0.4588744588744588,1324.5421245421244,66.78260869565217,
1.6861878096638862E12,0.4553224553224553,1326.007326007326,66.78260869565217,
1.6861878096716992E12,0.4593184593184593,1326.007326007326,66.78260869565217,
1.6861878096795122E12,0.4553224553224553,1326.007326007326,66.78260869565217,
1.6861878096873252E12,0.4593184593184593,1328.2051282051282,66.78260869565217,
1.6861878096951382E12,0.4553224553224553,1326.7399267399267,66.78260869565217,
1.6861878097029512E12,0.4593184593184593,1323.8095238095236,66.78260869565217,
1.6861878097107642E12,0.4553224553224553,1322.3443223443223,66.78260869565217,
1.6861878097185771E12,0.4588744588744588,1322.3443223443223,66.78260869565217,
1.6861878097263901E12,0.4562104562104562,1330.4029304029302,66.78260869565217,
1.6861878097342031E12,0.457986457986458,1339.194139194139,66.78260869565217,
1.686187809742016E12,0.4570984570984571,1356.7765567765566,66.78260869565217,
1.686187809749829E12,0.4570984570984571,1375.8241758241757,66.78260869565217,
1.686187809757642E12,0.457986457986458,1403.6630036630036,66.78260869565217,
1.6861878097654548E12,0.4562104562104562,1441.0256410256409,66.78260869565217,
1.6861878097732678E12,0.45843045843045843,1482.051282051282,66.78260869565217,
1.6861878097810808E12,0.4553224553224553,1526.007326007326,66.78260869565217,
1.6861878097888938E12,0.4588744588744588,1572.161172161172,66.78260869565217,
1.6861878097967068E12,0.4553224553224553,1618.3150183150183,66.78260869565217,
1.6861878098045198E12,0.4593184593184593,1661.5384615384614,66.78260869565217,
1.6861878098123328E12,0.4553224553224553,1700.3663003663003,79.17525773195877,
1.6861878098201458E12,0.4593184593184593,1727.4725274725274,79.17525773195877,
1.6861878098279587E12,0.4553224553224553,1747.985347985348,79.17525773195877,
1.6861878098357717E12,0.4588744588744588,1758.974358974359,79.17525773195877,
1.6861878098435847E12,0.45576645576645575,1761.172161172161,79.17525773195877,
1.6861878098513977E12,0.45843045843045843,1756.7765567765566,79.17525773195877,
1.6861878098592107E12,0.45665445665445664,1742.124542124542,79.17525773195877,
1.6861878098670237E12,0.4570984570984571,1721.6117216117216,79.17525773195877,
1.6861878098748367E12,0.4570984570984571,1699.6336996336995,79.17525773195877,
1.6861878098826497E12,0.45665445665445664,1676.1904761904761,79.17525773195877,
1.6861878098904626E12,0.457986457986458,1652.0146520146518,79.17525773195877,
1.6861878098982756E12,0.45576645576645575,1626.3736263736262,79.17525773195877,
1.6861878099060886E12,0.45843045843045843,1604.3956043956043,79.17525773195877,
1.6861878099139016E12,0.4553224553224553,1584.6153846153845,79.17525773195877,
1.6861878099217146E12,0.4588744588744588,1567.032967032967,79.17525773195877,
1.6861878099295276E12,0.4548784548784549,1554.5787545787546,79.17525773195877,
1.6861878099373406E12,0.4588744588744588,1542.1245421245421,79.17525773195877,
1.6861878099451536E12,0.4548784548784549,1532.6007326007325,79.17525773195877,
1.6861878099529666E12,0.4588744588744588,1525.2747252747251,79.17525773195877,
1.6861878099607795E12,0.4553224553224553,1518.6813186813185,79.17525773195877,
1.6861878099685925E12,0.45843045843045843,1515.7509157509157,79.17525773195877,
1.6861878099764055E12,0.45576645576645575,1507.6923076923076,79.17525773195877,
1.6861878099842185E12,0.45754245754245754,1499.6336996336995,79.17525773195877,
1.6861878099920315E12,0.45665445665445664,1489.3772893772893,79.17525773195877,
1.6861878099998445E12,0.45665445665445664,1477.6556776556777,79.17525773195877,
1.6861878100076572E12,0.45754245754245754,1467.3992673992673,79.17525773195877,
1.6861878100154702E12,0.45576645576645575,1459.3406593406592,79.17525773195877,
1.6861878100232832E12,0.457986457986458,1451.2820512820513,79.17525773195877,
1.6861878100310962E12,0.4553224553224553,1442.4908424908424,79.17525773195877,
1.6861878100389092E12,0.4588744588744588,1437.3626373626373,79.17525773195877,
1.6861878100467222E12,0.4548784548784549,1435.164835164835,79.17525773195877,
1.6861878100545352E12,0.4588744588744588,1433.6996336996335,79.17525773195877,
1.6861878100623481E12,0.4544344544344544,1435.164835164835,79.17525773195877,
1.6861878100701611E12,0.4588744588744588,1435.8974358974358,79.17525773195877,
1.686187810077974E12,0.4544344544344544,1438.095238095238,79.17525773195877,
1.686187810085787E12,0.45843045843045843,1440.2930402930401,79.17525773195877,
1.6861878100936E12,0.4553224553224553,1444.6886446886447,79.17525773195877,
1.686187810101413E12,0.45754245754245754,1444.6886446886447,79.17525773195877,
1.686187810109226E12,0.45576645576645575,1446.8864468864467,79.17525773195877,
1.686187810117039E12,0.4570984570984571,1445.4212454212454,79.17525773195877,
1.686187810124852E12,0.45665445665445664,1443.2234432234432,79.17525773195877,
1.686187810132665E12,0.4562104562104562,1440.2930402930401,79.17525773195877,
1.686187810140478E12,0.45754245754245754,1435.8974358974358,79.17525773195877,
1.686187810148291E12,0.4553224553224553,1430.03663003663,79.17525773195877,
1.686187810156104E12,0.45843045843045843,1426.3736263736262,79.17525773195877,
1.686187810163917E12,0.4544344544344544,1419.7802197802198,79.17525773195877,
1.68618781017173E12,0.45843045843045843,1414.6520146520145,79.17525773195877,
1.686187810179543E12,0.4544344544344544,1405.8608058608058,79.17525773195877,
1.686187810187356E12,0.4588744588744588,1398.5347985347985,79.17525773195877,
1.686187810195169E12,0.4544344544344544,1391.2087912087911,79.17525773195877,
1.686187810202982E12,0.4588744588744588,1380.952380952381,79.17525773195877,
1.686187810210795E12,0.4544344544344544,1373.6263736263736,79.17525773195877,
1.686187810218608E12,0.457986457986458,1366.3003663003662,79.17525773195877,
1.686187810226421E12,0.4553224553224553,1361.1721611721612,79.17525773195877,
1.686187810234234E12,0.4570984570984571,1356.0439560439559,79.17525773195877,
1.6861878102420469E12,0.4562104562104562,1351.6483516483515,79.17525773195877,
1.6861878102498599E12,0.4562104562104562,1347.2527472527472,79.17525773195877,
1.6861878102576726E12,0.4570984570984571,1345.7875457875457,79.17525773195877,
1.6861878102654856E12,0.4553224553224553,1340.6593406593406,79.17525773195877,
1.6861878102732986E12,0.45754245754245754,1336.263736263736,79.17525773195877,
1.6861878102811116E12,0.4548784548784549,1331.8681318681317,79.17525773195877,
1.6861878102889246E12,0.457986457986458,1328.937728937729,79.17525773195877,
1.6861878102967375E12,0.4544344544344544,1329.6703296703297,79.17525773195877,
1.6861878103045505E12,0.45843045843045843,1329.6703296703297,79.17525773195877,
1.6861878103123635E12,0.4544344544344544,1329.6703296703297,79.17525773195877,
1.6861878103201765E12,0.45843045843045843,1331.135531135531,79.17525773195877,
1.6861878103279895E12,0.4544344544344544,1329.6703296703297,79.17525773195877,
1.6861878103358025E12,0.45843045843045843,1326.7399267399267,79.17525773195877,
1.6861878103436155E12,0.4548784548784549,1323.8095238095236,79.17525773195877,
1.6861878103514285E12,0.45754245754245754,1322.3443223443223,79.17525773195877,
1.6861878103592415E12,0.4553224553224553,1320.8791208791208,79.17525773195877,
1.6861878103670544E12,0.45665445665445664,1320.14652014652,79.17525773195877,
1.6861878103748674E12,0.4562104562104562,1322.3443223443223,79.17525773195877,
1.6861878103826804E12,0.45576645576645575,1322.3443223443223,79.17525773195877,
1.6861878103904934E12,0.4570984570984571,1323.8095238095236,79.17525773195877,
1.6861878103983064E12,0.4548784548784549,1324.5421245421244,79.17525773195877,
1.6861878104061194E12,0.45754245754245754,1327.4725274725274,79.17525773195877,
1.6861878104139324E12,0.4544344544344544,1330.4029304029302,79.17525773195877,
1.6861878104217454E12,0.457986457986458,1330.4029304029302,79.17525773195877,
1.6861878104295583E12,0.453990453990454,1328.937728937729,79.17525773195877,
1.6861878104373713E12,0.45843045843045843,1325.2747252747251,79.17525773195877,
1.6861878104451843E12,0.453990453990454,1317.9487179487178,79.17525773195877,
1.6861878104529973E12,0.45843045843045843,1314.2857142857142,79.17525773195877,
1.6861878104608103E12,0.4544344544344544,1311.3553113553112,79.17525773195877,
1.6861878104686233E12,0.457986457986458,1309.1575091575091,79.17525773195877,
1.6861878104764363E12,0.4553224553224553,1310.6227106227104,79.17525773195877,
1.6861878104842493E12,0.4570984570984571,1312.087912087912,79.17525773195877,
1.6861878104920623E12,0.45576645576645575,1314.2857142857142,79.17525773195877,
1.686187810499875E12,0.4562104562104562,1315.018315018315,79.17525773195877,
1.686187810507688E12,0.45665445665445664,1315.7509157509157,79.17525773195877,
1.686187810515501E12,0.4553224553224553,1317.9487179487178,79.17525773195877,
1.686187810523314E12,0.4570984570984571,1321.6117216117216,79.17525773195877,
1.686187810531127E12,0.4544344544344544,1326.7399267399267,79.17525773195877,
1.68618781053894E12,0.45754245754245754,1334.7985347985348,79.17525773195877,
1.686187810546753E12,0.453990453990454,1342.8571428571427,79.17525773195877,
1.686187810554566E12,0.457986457986458,1354.5787545787546,79.17525773195877,
1.686187810562379E12,0.453990453990454,1372.161172161172,79.17525773195877,
1.686187810570192E12,0.457986457986458,1395.6043956043954,79.17525773195877,
1.686187810578005E12,0.4544344544344544,1426.3736263736262,79.17525773195877,
1.6861878105858179E12,0.45754245754245754,1463.003663003663,79.17525773195877,
1.6861878105936309E12,0.4544344544344544,1504.7619047619046,79.17525773195877,
1.6861878106014438E12,0.4570984570984571,1550.18315018315,79.17525773195877,
1.6861878106092568E12,0.4553224553224553,1595.6043956043954,79.17525773195877,
1.6861878106170698E12,0.4562104562104562,1640.2930402930401,79.17525773195877,
1.6861878106248828E12,0.4562104562104562,1676.923076923077,79.17525773195877,
1.6861878106326958E12,0.45576645576645575,1708.4249084249084,79.17525773195877,
1.6861878106405088E12,0.45665445665445664,1729.6703296703295,76.03960396039604,
1.6861878106483218E12,0.4548784548784549,1743.5897435897434,76.03960396039604,
1.6861878106561348E12,0.45754245754245754,1752.3809523809523,76.03960396039604,
1.6861878106639478E12,0.4544344544344544,1749.4505494505493,76.03960396039604,
1.6861878106717607E12,0.45754245754245754,1739.9267399267399,76.03960396039604,
1.6861878106795737E12,0.453990453990454,1724.5421245421244,76.03960396039604,
1.6861878106873867E12,0.457986457986458,1706.227106227106,76.03960396039604,
1.6861878106951997E12,0.453990453990454,1687.9120879120878,76.03960396039604,
1.6861878107030127E12,0.457986457986458,1666.6666666666665,76.03960396039604,
1.6861878107108257E12,0.453990453990454,1644.6886446886447,76.03960396039604,
1.6861878107186387E12,0.45754245754245754,1625.6410256410256,76.03960396039604,
1.6861878107264517E12,0.4548784548784549,1608.058608058608,76.03960396039604,
1.6861878107342646E12,0.4570984570984571,1592.6739926739926,76.03960396039604,
1.6861878107420774E12,0.45576645576645575,1583.8827838827838,76.03960396039604,
1.6861878107498904E12,0.4562104562104562,1572.8937728937728,76.03960396039604,
1.6861878107577034E12,0.4562104562104562,1562.6373626373625,76.03960396039604,
1.6861878107655164E12,0.4553224553224553,1550.18315018315,76.03960396039604,
1.6861878107733293E12,0.4570984570984571,1536.9963369963368,76.03960396039604,
1.6861878107811423E12,0.4544344544344544,1526.7399267399267,76.03960396039604,
1.6861878107889553E12,0.4570984570984571,1513.5531135531135,76.03960396039604,
1.6861878107967683E12,0.453990453990454,1500.3663003663003,76.03960396039604,
1.6861878108045813E12,0.457986457986458,1488.6446886446886,76.03960396039604,
1.6861878108123943E12,0.453990453990454,1475.4578754578754,76.03960396039604,
1.6861878108202073E12,0.457986457986458,1467.3992673992673,76.03960396039604,
1.6861878108280203E12,0.453990453990454,1455.6776556776556,76.03960396039604,
1.6861878108358333E12,0.45754245754245754,1445.4212454212454,76.03960396039604,
1.6861878108436462E12,0.453990453990454,1436.6300366300366,76.03960396039604,
1.6861878108514592E12,0.4570984570984571,1429.3040293040292,76.03960396039604,
1.6861878108592722E12,0.4548784548784549,1427.8388278388277,76.03960396039604,
1.6861878108670852E12,0.4562104562104562,1425.6410256410256,76.03960396039604,
1.6861878108748982E12,0.4553224553224553,1428.5714285714284,76.03960396039604,
1.6861878108827112E12,0.4553224553224553,1434.4322344322343,76.03960396039604,
1.6861878108905242E12,0.4562104562104562,1438.8278388278388,76.03960396039604,
1.6861878108983372E12,0.4548784548784549,1443.956043956044,76.03960396039604,
1.6861878109061501E12,0.4570984570984571,1448.3516483516482,76.03960396039604,
1.6861878109139631E12,0.4544344544344544,1452.7472527472526,76.03960396039604,
1.6861878109217761E12,0.45754245754245754,1457.142857142857,76.03960396039604,
1.686187810929589E12,0.453990453990454,1457.8754578754579,76.03960396039604,
1.686187810937402E12,0.45754245754245754,1454.212454212454,76.03960396039604,
1.686187810945215E12,0.45354645354645357,1448.3516483516482,76.03960396039604,
1.686187810953028E12,0.45754245754245754,1438.8278388278388,76.03960396039604,
1.686187810960841E12,0.453990453990454,1427.8388278388277,76.03960396039604,
1.686187810968654E12,0.4570984570984571,1419.047619047619,76.03960396039604,
1.686187810976467E12,0.4544344544344544,1410.2564102564102,76.03960396039604,
1.68618781098428E12,0.45665445665445664,1404.3956043956043,76.03960396039604,
1.6861878109920928E12,0.4553224553224553,1396.3369963369962,76.03960396039604,
1.6861878109999058E12,0.45576645576645575,1388.278388278388,76.03960396039604,
1.6861878110077188E12,0.45576645576645575,1378.7545787545787,76.03960396039604,
1.6861878110155317E12,0.4548784548784549,1369.9633699633698,76.03960396039604,
1.6861878110233447E12,0.4562104562104562,1364.102564102564,76.03960396039604,
1.6861878110311577E12,0.4544344544344544,1354.5787545787546,76.03960396039604,
1.6861878110389707E12,0.4570984570984571,1345.054945054945,76.03960396039604,
1.6861878110467837E12,0.453990453990454,1336.263736263736,76.03960396039604,
1.6861878110545967E12,0.45754245754245754,1328.937728937729,76.03960396039604,
1.6861878110624097E12,0.45354645354645357,1323.076923076923,76.03960396039604,
1.6861878110702227E12,0.4570984570984571,1316.4835164835165,76.03960396039604,
1.6861878110780356E12,0.45354645354645357,1313.5531135531135,76.03960396039604,
1.6861878110858486E12,0.4570984570984571,1311.3553113553112,76.03960396039604,
1.6861878110936616E12,0.453990453990454,1311.3553113553112,76.03960396039604,
1.6861878111014746E12,0.45665445665445664,1313.5531135531135,76.03960396039604,
1.6861878111092876E12,0.4544344544344544,1312.087912087912,76.03960396039604,
1.6861878111171006E12,0.45576645576645575,1313.5531135531135,76.03960396039604,
1.6861878111249136E12,0.4553224553224553,1314.2857142857142,76.03960396039604,
1.6861878111327266E12,0.4553224553224553,1315.7509157509157,76.03960396039604,
1.6861878111405396E12,0.45576645576645575,1320.14652014652,76.03960396039604,
1.6861878111483525E12,0.4544344544344544,1320.8791208791208,76.03960396039604,
1.6861878111561655E12,0.45665445665445664,1322.3443223443223,76.03960396039604,
1.6861878111639785E12,0.453990453990454,1320.14652014652,76.03960396039604,
1.6861878111717915E12,0.4570984570984571,1321.6117216117216,76.03960396039604,
