"sep=,"
Shimmer__TimestampSync_Unix_CAL,Shimmer__ECG_LA-RA_24BIT_CAL,Shimmer__ECGtoHR_LA_RA_CAL,
ms,mV,BPM,
1.686734908040207E12,9.694012367011592,74.92682926829268,
1.68673490804216E12,9.6787947033399,74.92682926829268,
1.6867349080441128E12,9.6650915938725,74.92682926829268,
1.6867349080460657E12,9.662062485463917,74.92682926829268,
1.6867349080480186E12,9.680453500801743,74.92682926829268,
1.6867349080499714E12,9.67929955474133,74.92682926829268,
1.6867349080519243E12,9.67929955474133,74.92682926829268,
1.6867349080538772E12,9.667615850879653,74.92682926829268,
1.68673490805583E12,9.67006798625803,74.92682926829268,
1.686734908057783E12,9.669491013227823,74.92682926829268,
1.6867349080597358E12,9.661629755691262,74.92682926829268,
1.6867349080616887E12,9.659538228456764,74.92682926829268,
1.6867349080636416E12,9.664875228986173,74.92682926829268,
1.6867349080655945E12,9.678650460082348,74.92682926829268,
1.6867349080675474E12,9.669923743000478,74.92682926829268,
1.6867349080695002E12,9.669058283455168,74.92682926829268,
1.6867349080714531E12,9.662495215236572,74.92682926829268,
1.686734908073406E12,9.657663066108594,74.92682926829268,
1.686734908075359E12,9.658384282396351,74.92682926829268,
1.6867349080773118E12,9.655355173987768,74.92682926829268,
1.6867349080792646E12,9.655571538874096,74.92682926829268,
1.6867349080812175E12,9.67107768906089,74.92682926829268,
1.6867349080831704E12,9.654850322586338,74.92682926829268,
1.6867349080851233E12,9.666173418304137,74.92682926829268,
1.6867349080870762E12,9.66285582338045,74.92682926829268,
1.686734908089029E12,9.665884931789034,74.92682926829268,
1.686734908090982E12,9.661629755691262,74.92682926829268,
1.6867349080929348E12,9.653335768382046,74.92682926829268,
1.6867349080948877E12,9.645762997360588,74.92682926829268,
1.6867349080968406E12,9.636747793763613,74.92682926829268,
1.6867349080987935E12,9.655715782131647,74.92682926829268,
1.6867349081007463E12,9.65088363300367,74.92682926829268,
1.6867349081026992E12,9.675909838188868,74.92682926829268,
1.686734908104652E12,9.70259484083591,74.92682926829268,
1.686734908106605E12,9.71629795030331,74.92682926829268,
1.6867349081085579E12,9.740098087799321,74.92682926829268,
1.6867349081105107E12,9.763826103666556,74.92682926829268,
1.6867349081124636E12,9.786688659988483,74.92682926829268,
1.6867349081144165E12,9.814022757294508,74.92682926829268,
1.6867349081163694E12,9.88902925122133,74.92682926829268,
1.6867349081183223E12,9.964612718178358,74.92682926829268,
1.6867349081202751E12,10.033344630401688,74.92682926829268,
1.686734908122228E12,10.083469162400862,74.92682926829268,
1.686734908124181E12,10.097100150239486,74.92682926829268,
1.6867349081261338E12,10.102365029140119,74.92682926829268,
1.6867349081280867E12,10.101932299367464,74.92682926829268,
1.6867349081300396E12,10.087147365468427,74.92682926829268,
1.6867349081319924E12,10.062698133313434,74.92682926829268,
1.6867349081339453E12,9.989494680106006,74.92682926829268,
1.6867349081358982E12,9.904174793264247,74.92682926829268,
1.686734908137851E12,9.889606224251537,74.92682926829268,
1.686734908139804E12,9.828447083049666,74.92682926829268,
1.6867349081417568E12,9.75452241355448,74.92682926829268,
1.6867349081437097E12,9.69163235326199,74.92682926829268,
1.6867349081456626E12,9.660043079858195,74.92682926829268,
1.6867349081476155E12,9.632204131150738,74.92682926829268,
1.6867349081495684E12,9.63782961819525,74.92682926829268,
1.6867349081515212E12,9.672952851409061,74.92682926829268,
1.686734908153474E12,9.687809906936874,74.92682926829268,
1.686734908155427E12,9.685790501331152,74.92682926829268,
1.68673490815738E12,9.678001365423366,74.92682926829268,
1.6867349081593325E12,9.67244800000763,74.92682926829268,
1.6867349081612854E12,9.678073487052142,74.92682926829268,
1.6867349081632383E12,9.687593542050546,74.92682926829268,
1.6867349081651912E12,9.687160812277892,74.92682926829268,
1.686734908167144E12,9.684925041785842,74.92682926829268,
1.686734908169097E12,9.70533546272939,74.92682926829268,
1.6867349081710498E12,9.705984557388373,74.92682926829268,
1.6867349081730027E12,9.69711359704895,74.92682926829268,
1.6867349081749556E12,9.691776596519542,74.92682926829268,
1.6867349081769084E12,9.687809906936874,74.92682926829268,
1.6867349081788613E12,9.680597744059295,74.92682926829268,
1.6867349081808142E12,9.685574136444824,74.92682926829268,
1.686734908182767E12,9.689973555800147,74.92682926829268,
1.68673490818472E12,9.691343866746887,74.92682926829268,
1.6867349081866729E12,9.698267543109363,74.92682926829268,
1.6867349081886257E12,9.687232933906667,74.92682926829268,
1.6867349081905786E12,9.698411786366915,74.92682926829268,
1.6867349081925315E12,9.695094191443228,74.92682926829268,
1.6867349081944844E12,9.684420190384412,74.92682926829268,
1.6867349081964373E12,9.683482609210326,74.92682926829268,
1.6867349081983901E12,9.689108096254838,74.92682926829268,
1.686734908200343E12,9.693579637238937,74.92682926829268,
1.686734908202296E12,9.70483061132796,74.92682926829268,
1.6867349082042488E12,9.701657259661825,74.92682926829268,
1.6867349082062017E12,9.704253638297754,74.92682926829268,
1.6867349082081545E12,9.690839015345457,74.92682926829268,
1.6867349082101074E12,9.702811205722238,74.92682926829268,
1.6867349082120603E12,9.691415988375663,74.92682926829268,
1.6867349082140132E12,9.692642056064852,74.92682926829268,
1.686734908215966E12,9.708003962994095,74.92682926829268,
1.686734908217919E12,9.709085787425732,74.92682926829268,
1.6867349082198718E12,9.703099692237341,74.92682926829268,
1.6867349082218247E12,9.708580936024301,74.92682926829268,
1.6867349082237776E12,9.699565732427327,74.92682926829268,
1.6867349082257305E12,9.682545028036241,74.92682926829268,
1.6867349082276833E12,9.697546326821605,74.92682926829268,
1.6867349082296362E12,9.712331260720642,74.92682926829268,
1.686734908231589E12,9.723654356438441,74.92682926829268,
1.686734908233542E12,9.721562829203943,74.92682926829268,
1.6867349082354949E12,9.731443492346227,74.92682926829268,
1.6867349082374478E12,9.735193817042568,74.92682926829268,
1.6867349082394006E12,9.719687666855773,74.92682926829268,
1.6867349082413535E12,9.707787598107767,74.92682926829268,
1.6867349082433064E12,9.713485206781055,74.92682926829268,
1.6867349082452593E12,9.71254762560697,74.92682926829268,
1.6867349082472122E12,9.721851315719046,74.92682926829268,
1.686734908249165E12,9.72949620836928,74.92682926829268,
1.686734908251118E12,9.72589012693049,74.92682926829268,
1.6867349082530708E12,9.72589012693049,74.92682926829268,
1.6867349082550237E12,9.735410181928895,74.92682926829268,
1.6867349082569766E12,9.723942842953544,74.92682926829268,
1.6867349082589294E12,9.726539221589473,74.92682926829268,
1.6867349082608823E12,9.710528220001247,74.92682926829268,
1.6867349082628352E12,9.714278544697589,74.92682926829268,
1.686734908264788E12,9.722933140150683,74.92682926829268,
1.686734908266741E12,9.738295047079927,74.92682926829268,
1.6867349082686938E12,9.743343561094232,74.92682926829268,
1.6867349082706467E12,9.749618142797726,74.92682926829268,
1.6867349082725996E12,9.738511411966254,74.92682926829268,
1.6867349082745525E12,9.737429587534617,74.92682926829268,
1.6867349082765054E12,9.73670837124686,74.92682926829268,
1.6867349082784583E12,9.726467099960697,74.92682926829268,
1.686734908280411E12,9.718677964052912,74.92682926829268,
1.6867349082823638E12,9.760292143856542,74.92682926829268,
1.6867349082843167E12,9.772985550521083,74.92682926829268,
1.6867349082862695E12,9.764619441583092,74.92682926829268,
1.6867349082882224E12,9.764042468552883,74.92682926829268,
1.6867349082901753E12,9.750627845600587,74.92682926829268,
1.6867349082921282E12,9.741901128518716,74.92682926829268,
1.686734908294081E12,9.748464196737313,74.92682926829268,
1.686734908296034E12,9.745146601813627,74.92682926829268,
1.6867349082979868E12,9.763826103666556,74.92682926829268,
1.6867349082999397E12,9.771254631430464,74.92682926829268,
1.6867349083018926E12,9.768369766279433,74.92682926829268,
1.6867349083038455E12,9.785390470670519,74.92682926829268,
1.6867349083057983E12,9.775077077755581,74.92682926829268,
1.6867349083077512E12,9.78502986252664,74.92682926829268,
1.686734908309704E12,9.790222619798497,74.92682926829268,
1.686734908311657E12,9.77630314544477,74.92682926829268,
1.6867349083136099E12,9.78178438923173,74.92682926829268,
1.6867349083155627E12,9.77630314544477,74.92682926829268,
1.6867349083175156E12,9.786832903246035,74.92682926829268,
1.6867349083194685E12,9.802122688546502,74.92682926829268,
1.6867349083214214E12,9.807676053962238,74.92682926829268,
1.6867349083233743E12,9.824336150209446,74.92682926829268,
1.6867349083253271E12,9.817845203619624,74.92682926829268,
1.68673490832728E12,9.815970041271454,74.92682926829268,
1.686734908329233E12,9.806233621386722,74.92682926829268,
1.6867349083311858E12,9.824985244868428,74.92682926829268,
1.6867349083331387E12,9.830394367026612,74.92682926829268,
1.6867349083350916E12,9.84445808463789,74.92682926829268,
1.6867349083370444E12,9.848136287705456,74.92682926829268,
1.6867349083389973E12,9.842366557403393,74.92682926829268,
1.6867349083409502E12,9.852102977288125,74.92682926829268,
1.686734908342903E12,9.839481692252361,74.92682926829268,
1.686734908344856E12,9.831692556344576,74.92682926829268,
1.6867349083468088E12,9.837029556873985,74.92682926829268,
1.6867349083487617E12,9.847703557932801,74.92682926829268,
1.6867349083507146E12,9.853329044977313,74.92682926829268,
1.6867349083526675E12,9.858954532021825,74.92682926829268,
1.6867349083546204E12,9.858593923877946,74.92682926829268,
1.6867349083565732E12,9.85765634270386,74.92682926829268,
1.6867349083585261E12,9.852824193575882,74.92682926829268,
1.686734908360479E12,9.84344838183503,74.92682926829268,
1.686734908362432E12,9.847342949788922,74.92682926829268,
1.6867349083643848E12,9.862272126945511,74.92682926829268,
1.6867349083663376E12,9.854627234295277,74.92682926829268,
1.6867349083682905E12,9.863714559521027,74.92682926829268,
1.6867349083702434E12,9.873162492890655,74.92682926829268,
1.6867349083721963E12,9.853761774749968,74.92682926829268,
1.6867349083741492E12,9.843015652062375,74.92682926829268,
1.686734908376102E12,9.85441086940895,74.92682926829268,
1.686734908378055E12,9.850011450053627,74.92682926829268,
1.6867349083800078E12,9.841933827630738,74.92682926829268,
1.6867349083819607E12,9.843376260206254,74.92682926829268,
1.6867349083839136E12,9.850011450053627,74.92682926829268,
1.6867349083858665E12,9.854266626151398,74.92682926829268,
1.6867349083878193E12,9.849578720280972,74.92682926829268,
1.6867349083897722E12,9.839625935509913,74.92682926829268,
1.686734908391725E12,9.82375917717924,74.92682926829268,
1.686734908393678E12,9.789862011654618,74.92682926829268,
1.6867349083956309E12,9.788419579079102,74.92682926829268,
1.6867349083975837E12,9.799670553168125,74.92682926829268,
1.6867349083995364E12,9.80147359388752,74.92682926829268,
1.6867349084014893E12,9.795775985214233,74.92682926829268,
1.6867349084034421E12,9.798155998963834,74.92682926829268,
1.686734908405395E12,9.786616538359707,74.92682926829268,
1.686734908407348E12,9.766999455332693,74.92682926829268,
1.6867349084093008E12,9.751637548403448,74.92682926829268,
1.6867349084112537E12,9.733895627724603,74.92682926829268,
1.6867349084132065E12,9.72726043787723,74.92682926829268,
1.6867349084151594E12,9.753945440524273,74.92682926829268,
1.6867349084171123E12,9.749762386055277,74.92682926829268,
1.6867349084190652E12,9.738150803822375,74.92682926829268,
1.686734908421018E12,9.754955143327134,74.92682926829268,
1.686734908422971E12,9.742838709692801,74.92682926829268,
1.6867349084249238E12,9.740675060829528,74.92682926829268,
1.6867349084268767E12,9.72040888314353,74.92682926829268,
1.6867349084288296E12,9.70569607087327,74.92682926829268,
1.6867349084307825E12,9.70569607087327,74.92682926829268,
1.6867349084327354E12,9.710528220001247,74.92682926829268,
1.6867349084346882E12,9.70980700371349,74.92682926829268,
1.686734908436641E12,9.7336071412095,74.92682926829268,
1.686734908438594E12,9.724952545756405,74.92682926829268,
1.6867349084405469E12,9.71254762560697,74.92682926829268,
1.6867349084424998E12,9.706777895304906,74.92682926829268,
1.6867349084444526E12,9.704037273411426,74.92682926829268,
1.6867349084464055E12,9.688170515080753,74.92682926829268,
1.6867349084483584E12,9.705479705986942,74.92682926829268,
1.6867349084503113E12,9.711321557917781,74.92682926829268,
1.6867349084522642E12,9.708220327880422,74.92682926829268,
1.686734908454217E12,9.704470003184081,74.92682926829268,
1.68673490845617E12,9.708220327880422,74.92682926829268,
1.6867349084581228E12,9.693796002125264,74.92682926829268,
1.6867349084600757E12,9.693723880496488,74.92682926829268,
1.6867349084620286E12,9.688819609739735,74.92682926829268,
1.6867349084639814E12,9.703676665267547,74.92682926829268,
1.6867349084659343E12,9.709734882084714,74.92682926829268,
1.6867349084678872E12,9.699926340571206,74.92682926829268,
1.68673490846984E12,9.711321557917781,74.92682926829268,
1.686734908471793E12,9.70295544897979,74.92682926829268,
1.6867349084737458E12,9.697329961935278,74.92682926829268,
1.6867349084756987E12,9.67929955474133,74.92682926829268,
1.6867349084776516E12,9.682617149665017,74.92682926829268,
1.6867349084796045E12,9.680237135915416,74.92682926829268,
1.6867349084815574E12,9.71254762560697,74.92682926829268,
1.6867349084835103E12,9.713196720265952,74.92682926829268,
1.6867349084854631E12,9.717235531477396,74.92682926829268,
1.686734908487416E12,9.717379774734948,74.92682926829268,
1.686734908489369E12,9.702306354320807,74.92682926829268,
1.6867349084913218E12,9.705840314130821,74.92682926829268,
1.6867349084932747E12,9.691199623489336,74.92682926829268,
1.6867349084952275E12,9.692353569549748,74.92682926829268,
1.6867349084971804E12,9.706777895304906,74.92682926829268,
1.6867349084991333E12,9.699493610798552,74.92682926829268,
1.6867349085010862E12,9.693796002125264,74.92682926829268,
1.686734908503039E12,9.70944639556961,74.92682926829268,
1.686734908504992E12,9.720481004772306,74.92682926829268,
1.6867349085069448E12,9.700142705457534,74.92682926829268,
1.6867349085088977E12,9.692569934436076,74.92682926829268,
1.6867349085108506E12,9.686728082505237,74.92682926829268,
1.6867349085128035E12,9.700359070343861,74.92682926829268,
1.6867349085147563E12,9.704181516668978,74.92682926829268,
1.6867349085167092E12,9.685285649929721,70.45871559633028,
1.6867349085186619E12,9.710888828145126,70.45871559633028,
1.6867349085206147E12,9.714567031212692,70.45871559633028,
1.6867349085225676E12,9.703099692237341,70.45871559633028,
1.6867349085245205E12,9.698988759397121,70.45871559633028,
1.6867349085264734E12,9.701729381290601,70.45871559633028,
1.6867349085284263E12,9.68788202856565,70.45871559633028,
1.6867349085303792E12,9.701368773146722,70.45871559633028,
1.686734908532332E12,9.70396515178265,70.45871559633028,
1.686734908534285E12,9.702378475949583,70.45871559633028,
1.6867349085362378E12,9.706489408789803,70.45871559633028,
1.6867349085381907E12,9.706994260191234,70.45871559633028,
1.6867349085401436E12,9.70259484083591,70.45871559633028,
1.6867349085420964E12,9.709085787425732,70.45871559633028,
1.6867349085440493E12,9.708003962994095,70.45871559633028,
1.6867349085460022E12,9.69747420519283,70.45871559633028,
1.686734908547955E12,9.69848390799569,70.45871559633028,
1.686734908549908E12,9.706994260191234,70.45871559633028,
1.6867349085518608E12,9.70569607087327,70.45871559633028,
1.6867349085538137E12,9.710095490228593,70.45871559633028,
1.6867349085557666E12,9.690839015345457,70.45871559633028,
1.6867349085577195E12,9.696825110533847,70.45871559633028,
1.6867349085596724E12,9.684564433641963,70.45871559633028,
1.6867349085616252E12,9.672159513492527,70.45871559633028,
1.6867349085635781E12,9.685934744588703,70.45871559633028,
1.686734908565531E12,9.712836112122073,70.45871559633028,
1.686734908567484E12,9.706056679017149,70.45871559633028,
1.6867349085694368E12,9.712980355379624,70.45871559633028,
1.6867349085713896E12,9.71939918034067,70.45871559633028,
1.6867349085733425E12,9.69574328610221,70.45871559633028,
1.6867349085752954E12,9.700791800116516,70.45871559633028,
1.6867349085772483E12,9.695959650988538,70.45871559633028,
1.6867349085792012E12,9.70122452988917,70.45871559633028,
1.686734908581154E12,9.699133002654673,70.45871559633028,
1.686734908583107E12,9.707643354850216,70.45871559633028,
1.6867349085850598E12,9.722211923862925,70.45871559633028,
1.6867349085870127E12,9.720985856173737,70.45871559633028,
1.6867349085889656E12,9.701080286631619,70.45871559633028,
1.6867349085909185E12,9.693796002125264,70.45871559633028,
1.6867349085928713E12,9.71081670651635,70.45871559633028,
1.6867349085948242E12,9.6856462580736,70.45871559633028,
1.686734908596777E12,9.696897232162623,70.45871559633028,
1.68673490859873E12,9.694661461670574,70.45871559633028,
1.6867349086006829E12,9.713990058182485,70.45871559633028,
1.6867349086045886E12,9.705912435759597,70.45871559633028,
1.6867349086065415E12,9.70208998943448,70.45871559633028,
1.6867349086084944E12,9.704542124812857,70.45871559633028,
1.6867349086104473E12,9.698051178223036,70.45871559633028,
1.6867349086124001E12,9.696536624018744,70.45871559633028,
1.686734908614353E12,9.700791800116516,70.45871559633028,
1.686734908616306E12,9.724664059241302,70.45871559633028,
1.6867349086182588E12,9.706922138562458,70.45871559633028,
1.6867349086202117E12,9.688819609739735,70.45871559633028,
1.6867349086221646E12,9.711465801175333,70.45871559633028,
1.6867349086241174E12,9.695166313072004,70.45871559633028,
1.6867349086260703E12,9.69523843470078,70.45871559633028,
1.6867349086280232E12,9.688675366482183,70.45871559633028,
1.686734908629976E12,9.695022069814453,70.45871559633028,
1.686734908631929E12,9.684203825498084,70.45871559633028,
1.6867349086338818E12,9.702017867805704,70.45871559633028,
1.6867349086358347E12,9.702234232692032,70.45871559633028,
1.6867349086377876E12,9.714855517727795,70.45871559633028,
1.6867349086397402E12,9.694012367011592,70.45871559633028,
1.686734908641693E12,9.684708676899515,70.45871559633028,
1.686734908643646E12,9.694012367011592,70.45871559633028,
1.6867349086455989E12,9.674323162355801,70.45871559633028,
1.6867349086475518E12,9.67468377049968,70.45871559633028,
1.6867349086495046E12,9.691343866746887,70.45871559633028,
1.6867349086514575E12,9.702450597578359,70.45871559633028,
1.6867349086534104E12,9.709374273940835,70.45871559633028,
1.6867349086553633E12,9.699133002654673,70.45871559633028,
1.6867349086573162E12,9.699349367541,70.45871559633028,
1.686734908659269E12,9.703316057123669,70.45871559633028,
1.686734908661222E12,9.676991662620505,70.45871559633028,
1.6867349086631748E12,9.676991662620505,70.45871559633028,
1.6867349086651277E12,9.698628151253242,70.45871559633028,
1.6867349086670806E12,9.69574328610221,70.45871559633028,
1.6867349086690334E12,9.701729381290601,70.45871559633028,
1.6867349086709863E12,9.700286948715085,70.45871559633028,
1.6867349086729392E12,9.693219029095058,70.45871559633028,
1.686734908674892E12,9.690839015345457,70.45871559633028,
1.686734908676845E12,9.702017867805704,70.45871559633028,
1.6867349086787979E12,9.688603244853407,70.45871559633028,
1.6867349086807507E12,9.682256541521138,70.45871559633028,
1.6867349086827036E12,9.678145608680918,70.45871559633028,
1.6867349086846565E12,9.684925041785842,70.45871559633028,
1.6867349086866094E12,9.702522719207135,70.45871559633028,
1.6867349086885623E12,9.708653057653077,70.45871559633028,
1.6867349086905151E12,9.698916637768345,70.45871559633028,
1.686734908692468E12,9.682328663149914,70.45871559633028,
1.686734908694421E12,9.679588041256434,70.45871559633028,
1.6867349086963738E12,9.689685069285044,70.45871559633028,
1.6867349086983267E12,9.69884451613957,70.45871559633028,
1.6867349087002795E12,9.703099692237341,70.45871559633028,
1.6867349087022324E12,9.70533546272939,70.45871559633028,
1.6867349087041853E12,9.689396582769941,70.45871559633028,
1.6867349087061382E12,9.685429893187273,70.45871559633028,
1.686734908708091E12,9.670356472773133,70.45871559633028,
1.686734908710044E12,9.673962554211922,70.45871559633028,
1.6867349087119968E12,9.685718379702376,70.45871559633028,
1.6867349087139497E12,9.678434095196021,70.45871559633028,
1.6867349087159026E12,9.673890432583146,70.45871559633028,
1.6867349087178555E12,9.707282746706337,70.45871559633028,
1.6867349087198083E12,9.71579309890188,70.45871559633028,
1.6867349087217612E12,9.70432575992653,70.45871559633028,
1.686734908723714E12,9.697257840306502,70.45871559633028,
1.686734908725667E12,9.68427594712686,70.45871559633028,
1.6867349087276199E12,9.674755892128456,70.45871559633028,
1.6867349087295728E12,9.687305055535443,70.45871559633028,
1.6867349087315256E12,9.681318960347053,70.45871559633028,
1.6867349087334785E12,9.691415988375663,70.45871559633028,
1.6867349087354314E12,9.702234232692032,70.45871559633028,
1.6867349087373843E12,9.711393679546557,70.45871559633028,
1.6867349087393372E12,9.708292449509198,70.45871559633028,
1.68673490874129E12,9.704397881555305,70.45871559633028,
1.686734908743243E12,9.685069285043394,70.45871559633028,
1.6867349087451958E12,9.676631054476626,70.45871559633028,
1.6867349087471487E12,9.706056679017149,70.45871559633028,
1.6867349087491016E12,9.692786299322403,70.45871559633028,
1.6867349087510544E12,9.706417287161027,70.45871559633028,
1.6867349087530073E12,9.716225828674535,70.45871559633028,
1.6867349087549602E12,9.717524017992499,70.45871559633028,
1.686734908756913E12,9.716370071932086,70.45871559633028,
1.6867349087588657E12,9.7243755727262,70.45871559633028,
1.6867349087608186E12,9.694877826556901,70.45871559633028,
1.6867349087627715E12,9.702522719207135,70.45871559633028,
1.6867349087647244E12,9.701152408260395,70.45871559633028,
1.6867349087666772E12,9.70295544897979,70.45871559633028,
1.6867349087686301E12,9.719831910113324,70.45871559633028,
1.686734908770583E12,9.706850016933682,70.45871559633028,
1.686734908772536E12,9.694517218413022,70.45871559633028,
1.6867349087744888E12,9.70944639556961,70.45871559633028,
1.6867349087764417E12,9.714350666326364,70.45871559633028,
1.6867349087783945E12,9.703099692237341,70.45871559633028,
1.6867349087803474E12,9.7243755727262,70.45871559633028,
1.6867349087823003E12,9.723798599695993,70.45871559633028,
1.6867349087842532E12,9.741252033859734,70.45871559633028,
1.686734908786206E12,9.738439290337478,70.45871559633028,
1.686734908788159E12,9.741612642003613,70.45871559633028,
1.6867349087901118E12,9.734039870982155,70.45871559633028,
1.6867349087920647E12,9.713413085152279,70.45871559633028,
1.6867349087940176E12,9.703748786896323,70.45871559633028,
1.6867349087959705E12,9.704974854585512,70.45871559633028,
1.6867349087979233E12,9.707931841365319,70.45871559633028,
1.6867349087998762E12,9.727476802763558,70.45871559633028,
1.686734908801829E12,9.72351011318089,70.45871559633028,
1.686734908803782E12,9.72076949128741,70.45871559633028,
1.6867349088057349E12,9.718966450568015,70.45871559633028,
1.6867349088076877E12,9.716225828674535,70.45871559633028,
1.6867349088096406E12,9.719976153370876,70.45871559633028,
1.6867349088115935E12,9.702811205722238,70.45871559633028,
1.6867349088135464E12,9.695022069814453,70.45871559633028,
1.6867349088154993E12,9.689612947656268,70.45871559633028,
1.6867349088174521E12,9.682977757808896,70.45871559633028,
1.686734908819405E12,9.681895933377259,70.45871559633028,
1.686734908821358E12,9.694084488640367,70.45871559633028,
1.6867349088233108E12,9.698556029624466,70.45871559633028,
1.6867349088252637E12,9.690189920686475,70.45871559633028,
1.6867349088272166E12,9.6719431486062,70.45871559633028,
1.6867349088291694E12,9.686367474361358,70.45871559633028,
1.6867349088311223E12,9.682545028036241,70.45871559633028,
1.6867349088330752E12,9.688747488110959,70.45871559633028,
1.686734908835028E12,9.695310556329556,70.45871559633028,
1.686734908836981E12,9.689035974626062,70.45871559633028,
1.6867349088389338E12,9.681246838718277,70.45871559633028,
1.6867349088408867E12,9.664947350614948,70.45871559633028,
1.6867349088428396E12,9.651532727662651,70.45871559633028,
1.6867349088447925E12,9.656292755161854,70.45871559633028,
1.6867349088467454E12,9.663865526183312,70.45871559633028,
1.6867349088486982E12,9.670789202545787,70.45871559633028,
1.6867349088506511E12,9.684708676899515,70.45871559633028,
1.686734908852604E12,9.682617149665017,70.45871559633028,
1.686734908854557E12,9.691920839777094,70.45871559633028,
1.6867349088565098E12,9.680453500801743,70.45871559633028,
1.6867349088584626E12,9.68240078477869,70.45871559633028,
1.6867349088604155E12,9.672159513492527,70.45871559633028,
1.6867349088623684E12,9.66184612057759,70.45871559633028,
1.6867349088643213E12,9.683194122695223,70.45871559633028,
1.6867349088662742E12,9.67792924379459,70.45871559633028,
1.686734908868227E12,9.678434095196021,70.45871559633028,
1.68673490887018E12,9.678217730309694,70.45871559633028,
1.6867349088721328E12,9.669491013227823,70.45871559633028,
1.6867349088740857E12,9.668841918568841,70.45871559633028,
1.6867349088760386E12,9.669995864629254,70.45871559633028,
1.6867349088779912E12,9.66458674247107,70.45871559633028,
1.686734908879944E12,9.66869767531129,70.45871559633028,
1.686734908881897E12,9.674323162355801,70.45871559633028,
1.6867349088838499E12,9.68651171761891,70.45871559633028,
1.6867349088858027E12,9.704614246441633,70.45871559633028,
1.6867349088877556E12,9.749834507684053,70.45871559633028,
1.6867349088897085E12,9.772552820748428,70.45871559633028,
1.6867349088916614E12,9.814383365438387,70.45871559633028,
1.6867349088936143E12,9.834793786381935,70.45871559633028,
1.6867349088955671E12,9.85801695084774,70.45871559633028,
1.68673490889752E12,9.900135982052802,70.45871559633028,
1.686734908899473E12,9.979253408819844,70.45871559633028,
1.6867349089014258E12,10.029161575932692,70.45871559633028,
1.6867349089033787E12,10.067674525698964,70.45871559633028,
1.6867349089053315E12,10.073804864144906,70.45871559633028,
1.6867349089072844E12,10.088229189900064,70.45871559633028,
1.6867349089092373E12,10.058370835586887,70.45871559633028,
1.6867349089111902E12,9.950909608710958,70.45871559633028,
1.686734908913143E12,9.870421870997175,70.45871559633028,
1.686734908915096E12,9.83659682710133,70.45871559633028,
1.6867349089170488E12,9.860685451112444,70.45871559633028,
1.6867349089190017E12,9.806882716045704,70.45871559633028,
1.6867349089209546E12,9.762672157606143,70.45871559633028,
1.6867349089229075E12,9.722211923862925,70.45871559633028,
1.6867349089248604E12,9.666750391334343,70.45871559633028,
1.6867349089268132E12,9.610567642518001,70.45871559633028,
1.686734908928766E12,9.590806316233435,70.45871559633028,
1.686734908930719E12,9.61453433210067,70.45871559633028,
1.6867349089326719E12,9.63696415864994,70.45871559633028,
1.6867349089346248E12,9.654561836071235,70.45871559633028,
1.6867349089365776E12,9.68838687996708,70.45871559633028,
1.6867349089385305E12,9.706561530418579,70.45871559633028,
1.6867349089404834E12,9.698051178223036,70.45871559633028,
1.6867349089424363E12,9.690478407201578,70.45871559633028,
1.6867349089443892E12,9.693940245382816,70.45871559633028,
1.686734908946342E12,9.67929955474133,70.45871559633028,
1.686734908948295E12,9.698916637768345,70.45871559633028,
1.6867349089502478E12,9.716874923333517,70.45871559633028,
1.6867349089522007E12,9.720336761514755,70.45871559633028,
1.6867349089541536E12,9.718822207310463,70.45871559633028,
1.6867349089561064E12,9.703316057123669,70.45871559633028,
1.6867349089580593E12,9.699709975684879,70.45871559633028,
1.6867349089600122E12,9.696392380761193,70.45871559633028,
1.686734908961965E12,9.701873624548153,70.45871559633028,
1.686734908963918E12,9.710744584887575,70.45871559633028,
1.6867349089658708E12,9.708508814395525,70.45871559633028,
1.6867349089678237E12,9.708220327880422,70.45871559633028,
1.6867349089697766E12,9.702739084093462,70.45871559633028,
1.6867349089717295E12,9.714855517727795,70.45871559633028,
1.6867349089736824E12,9.699637854056103,70.45871559633028,
1.6867349089756353E12,9.693940245382816,70.45871559633028,
1.6867349089775881E12,9.69336327235261,70.45871559633028,
1.686734908979541E12,9.697546326821605,70.45871559633028,
1.686734908981494E12,9.702666962464686,70.45871559633028,
1.6867349089834468E12,9.71218701746309,70.45871559633028,
1.6867349089853997E12,9.71391793655371,70.45871559633028,
1.6867349089873525E12,9.715216125871674,70.45871559633028,
1.6867349089893054E12,9.711393679546557,70.45871559633028,
1.6867349089912583E12,9.70158513803305,70.45871559633028,
1.6867349089932112E12,9.703893030153875,70.45871559633028,
1.686734908995164E12,9.709157909054507,70.45871559633028,
1.6867349089971167E12,9.717019166591069,70.45871559633028,
1.6867349089990696E12,9.708580936024301,70.45871559633028,
1.6867349090010225E12,9.724231329468648,70.45871559633028,
1.6867349090029753E12,9.727548924392334,70.45871559633028,
1.6867349090049282E12,9.72985681651316,70.45871559633028,
1.686734909006881E12,9.715504612386777,70.45871559633028,
1.686734909008834E12,9.709590638827162,70.45871559633028,
1.6867349090107869E12,9.706561530418579,70.45871559633028,
1.6867349090127397E12,9.711537922804109,70.45871559633028,
1.6867349090146926E12,9.724447694354975,70.45871559633028,
1.6867349090166455E12,9.721130099431289,70.45871559633028,
1.6867349090185984E12,9.740530817571976,70.45871559633028,
1.6867349090205513E12,9.7380786821936,70.45871559633028,
1.6867349090225042E12,9.73497745215624,70.45871559633028,
1.686734909024457E12,9.721995558976598,70.45871559633028,
1.68673490902641E12,9.712042774205539,70.45871559633028,
1.6867349090283628E12,9.720841612916185,70.45871559633028,
1.6867349090303157E12,9.723726478067217,70.45871559633028,
1.6867349090322686E12,9.740170209428097,70.45871559633028,
1.6867349090342214E12,9.732381073520312,70.45871559633028,
1.6867349090361743E12,9.734184114239707,70.45871559633028,
1.6867349090381272E12,9.750772088858138,70.45871559633028,
1.68673490904008E12,9.738944141738909,70.45871559633028,
1.686734909042033E12,9.73223683026276,70.45871559633028,
1.6867349090439858E12,9.73310228980807,70.45871559633028,
1.6867349090459387E12,9.739016263367684,70.45871559633028,
1.6867349090478916E12,9.744281142268317,70.45871559633028,
1.6867349090498445E12,9.743271439465456,70.45871559633028,
1.6867349090517974E12,9.748319953479761,70.45871559633028,
1.6867349090537502E12,9.752214521433654,70.45871559633028,
1.6867349090557031E12,9.753945440524273,70.45871559633028,
1.686734909057656E12,9.741684763632389,70.45871559633028,
1.686734909059609E12,9.747166007419349,70.45871559633028,
1.6867349090615618E12,9.74767085882078,70.45871559633028,
1.6867349090635146E12,9.753440589122842,70.45871559633028,
1.6867349090654675E12,9.75913819779613,70.45871559633028,
1.6867349090674204E12,9.754955143327134,70.45871559633028,
1.6867349090693733E12,9.77406737495272,70.45871559633028,
1.6867349090713262E12,9.780991051315196,70.45871559633028,
1.686734909073279E12,9.770389171885155,70.45871559633028,
1.686734909075232E12,9.770389171885155,70.45871559633028,
1.6867349090771848E12,9.766133995787383,70.45871559633028,
1.6867349090791377E12,9.754955143327134,70.45871559633028,
1.6867349090810906E12,9.779620740368456,70.45871559633028,
1.6867349090830435E12,9.79137656585891,70.45871559633028,
1.6867349090849963E12,9.788708065594205,70.45871559633028,
1.6867349090869492E12,9.810272432598167,70.45871559633028,
1.686734909088902E12,9.796569323130766,70.45871559633028,
1.686734909090855E12,9.796208714986888,70.45871559633028,
1.6867349090928079E12,9.792963241691977,70.45871559633028,
1.6867349090947607E12,9.797506904304852,70.45871559633028,
1.6867349090967136E12,9.79188141726034,70.45871559633028,
1.6867349090986665E12,9.79923782339547,70.45871559633028,
1.6867349091006194E12,9.804863310439982,70.45871559633028,
1.6867349091025723E12,9.81979248759657,70.45871559633028,
1.6867349091045251E12,9.820802190399432,70.45871559633028,
1.686734909106478E12,9.808036662106117,70.45871559633028,
1.686734909108431E12,9.81243608146144,70.45871559633028,
1.6867349091103838E12,9.828230718163338,70.45871559633028,
1.6867349091123367E12,9.821956136459844,70.45871559633028,
1.6867349091142896E12,9.833711961950298,70.45871559633028,
1.6867349091162424E12,9.842655043918496,70.45871559633028,
1.686734909118195E12,9.847775679561577,70.45871559633028,
1.686734909120148E12,9.864435775808785,70.45871559633028,
1.6867349091221008E12,9.852824193575882,70.45871559633028,
1.6867349091240537E12,9.846838098387492,70.45871559633028,
1.6867349091260066E12,9.843015652062375,70.45871559633028,
1.6867349091279595E12,9.837822894790518,70.45871559633028,
1.6867349091299124E12,9.84993932842485,70.45871559633028,
1.6867349091318652E12,9.859747869938358,70.45871559633028,
1.686734909133818E12,9.860469086226116,70.45871559633028,
1.686734909135771E12,9.873306736148207,70.45871559633028,
1.6867349091377239E12,9.872441276602897,70.45871559633028,
1.6867349091396768E12,9.844241719751563,70.45871559633028,
1.6867349091416296E12,9.838327746191949,70.45871559633028,
1.6867349091435825E12,9.847703557932801,70.45871559633028,
1.6867349091455354E12,9.872585519860449,70.45871559633028,
1.6867349091474883E12,9.870998844027381,70.45871559633028,
1.6867349091494412E12,9.858161194105291,70.45871559633028,
1.686734909151394E12,9.870133384482072,70.45871559633028,
1.686734909153347E12,9.87770615550353,70.45871559633028,
1.6867349091552998E12,9.864291532551233,70.45871559633028,
1.6867349091572527E12,9.861334545771426,70.45871559633028,
1.6867349091592056E12,9.851886612401797,70.45871559633028,
1.6867349091611584E12,9.848857503993214,70.45871559633028,
1.6867349091631113E12,9.830971340056818,70.45871559633028,
1.6867349091650642E12,9.84842477422056,70.45871559633028,
1.686734909167017E12,9.85130963937159,70.45871559633028,
1.68673490916897E12,9.846838098387492,70.45871559633028,
1.6867349091709229E12,9.847775679561577,70.45871559633028,
1.6867349091728757E12,9.835803489184796,70.45871559633028,
1.6867349091748286E12,9.821595528315965,70.45871559633028,
1.6867349091767815E12,9.80233905343283,70.45871559633028,
1.6867349091787344E12,9.793035363320753,70.45871559633028,
1.6867349091806873E12,9.788780187222981,70.45871559633028,
1.6867349091826401E12,9.792963241691977,70.45871559633028,
1.686734909184593E12,9.804646945553655,70.45871559633028,
1.686734909186546E12,9.784597132753985,70.45871559633028,
1.6867349091884988E12,9.778034064535388,70.45871559633028,
1.6867349091904517E12,9.747959345335882,70.45871559633028,
1.6867349091924045E12,9.730505911172141,70.45871559633028,
1.6867349091943574E12,9.738799898481357,70.45871559633028,
1.6867349091963103E12,9.742478101548922,70.45871559633028,
1.6867349091982632E12,9.749834507684053,70.45871559633028,
1.686734909200216E12,9.748608439994864,70.45871559633028,
1.686734909202169E12,9.751276940259569,70.45871559633028,
1.6867349092041218E12,9.747959345335882,70.45871559633028,
1.6867349092060747E12,9.735410181928895,70.45871559633028,
1.6867349092080276E12,9.728270140680092,70.45871559633028,
1.6867349092099805E12,9.719831910113324,70.45871559633028,
1.6867349092119333E12,9.722788896893132,70.45871559633028,
1.6867349092138862E12,9.711393679546557,70.45871559633028,
1.686734909215839E12,9.71629795030331,70.45871559633028,
1.686734909217792E12,9.726034370188042,70.45871559633028,
1.6867349092197449E12,9.726971951362128,70.45871559633028,
1.6867349092216978E12,9.713268841894728,70.45871559633028,
1.6867349092236506E12,9.702811205722238,70.45871559633028,
1.6867349092256035E12,9.70843669276675,70.45871559633028,
1.6867349092275564E12,9.700503313601413,70.45871559633028,
1.6867349092295093E12,9.707426989963889,70.45871559633028,
1.6867349092314622E12,9.719759788484549,70.45871559633028,
1.686734909233415E12,9.713629450038606,70.45871559633028,
1.686734909235368E12,9.71939918034067,70.45871559633028,
1.6867349092373206E12,9.721562829203943,70.45871559633028,
1.6867349092392734E12,9.702234232692032,70.45871559633028,
1.6867349092412263E12,9.699060881025897,70.45871559633028,
1.6867349092431792E12,9.696680867276296,70.45871559633028,
1.686734909245132E12,9.693074785837506,70.45871559633028,
1.686734909247085E12,9.700431191972637,70.45871559633028,
1.6867349092490378E12,9.697690570079157,70.45871559633028,
1.6867349092509907E12,9.69797905659426,70.45871559633028,
1.6867349092529436E12,9.716370071932086,70.45871559633028,
1.6867349092548965E12,9.724303451097423,70.45871559633028,
1.6867349092568494E12,9.716153707045759,70.45871559633028,
1.6867349092588022E12,9.708653057653077,70.45871559633028,
1.6867349092607551E12,9.706417287161027,70.45871559633028,
1.686734909262708E12,9.697185718677726,70.45871559633028,
1.686734909264661E12,9.711826409319212,70.45871559633028,
1.6867349092666138E12,9.72574588367294,70.45871559633028,
1.6867349092685667E12,9.716081585416983,70.45871559633028,
1.6867349092705195E12,9.72213980223415,70.45871559633028,
1.6867349092724724E12,9.716947044962293,70.45871559633028,
1.6867349092744253E12,9.702162111063256,70.45871559633028,
1.6867349092763782E12,9.705623949244494,70.45871559633028,
1.686734909278331E12,9.693940245382816,70.45871559633028,
1.686734909280284E12,9.70980700371349,70.45871559633028,
1.6867349092822368E12,9.717884626136378,70.45871559633028,
1.6867349092841897E12,9.718100991022705,70.45871559633028,
1.6867349092861426E12,9.723654356438441,70.45871559633028,
1.6867349092880955E12,9.716730680075965,70.45871559633028,
1.6867349092900483E12,9.71579309890188,70.45871559633028,
1.6867349092920012E12,9.712980355379624,70.45871559633028,
1.686734909293954E12,9.697762691707933,70.45871559633028,
1.686734909295907E12,9.687809906936874,70.45871559633028,
1.6867349092978599E12,9.710888828145126,70.45871559633028,
1.6867349092998127E12,9.71853372079536,70.45871559633028,
1.6867349093017656E12,9.718677964052912,70.45871559633028,
1.6867349093037185E12,9.725673762044163,70.45871559633028,
1.6867349093056714E12,9.714278544697589,70.45871559633028,
1.6867349093076243E12,9.710888828145126,70.45871559633028,
1.6867349093095771E12,9.710888828145126,70.45871559633028,
1.68673490931153E12,9.709662760455938,70.45871559633028,
1.686734909313483E12,9.703676665267547,70.45871559633028,
1.6867349093154358E12,9.712836112122073,70.45871559633028,
1.6867349093173887E12,9.728919235339074,70.45871559633028,
1.6867349093193416E12,9.728053775793764,70.45871559633028,
1.6867349093212944E12,9.734544722383585,70.45871559633028,
1.6867349093232473E12,9.718605842424136,76.99248120300751,
1.6867349093252002E12,9.72812589742254,76.99248120300751,
1.686734909327153E12,9.702234232692032,76.99248120300751,
1.686734909329106E12,9.712980355379624,76.99248120300751,
1.6867349093310588E12,9.714711274470243,76.99248120300751,
1.6867349093330117E12,9.728919235339074,76.99248120300751,
1.6867349093349646E12,9.717956747765154,76.99248120300751,
1.6867349093369175E12,9.716514315189638,76.99248120300751,
1.6867349093388704E12,9.713773693296158,76.99248120300751,
1.6867349093408232E12,9.706489408789803,76.99248120300751,
1.6867349093427761E12,9.722933140150683,76.99248120300751,
1.686734909344729E12,9.724952545756405,76.99248120300751,
1.686734909346682E12,9.72949620836928,76.99248120300751,
1.6867349093486348E12,9.739881722912994,76.99248120300751,
1.6867349093505876E12,9.729135600225401,76.99248120300751,
1.6867349093525405E12,9.723437991552114,76.99248120300751,
1.6867349093544934E12,9.726106491816818,76.99248120300751,
1.686734909356446E12,9.72300526177946,76.99248120300751,
1.686734909358399E12,9.710888828145126,76.99248120300751,
1.6867349093603518E12,9.72589012693049,76.99248120300751,
1.6867349093623047E12,9.713485206781055,76.99248120300751,
1.6867349093642576E12,9.710600341630023,76.99248120300751,
1.6867349093662104E12,9.718605842424136,76.99248120300751,
1.6867349093681633E12,9.71853372079536,76.99248120300751,
1.6867349093701162E12,9.712836112122073,76.99248120300751,
1.686734909372069E12,9.717091288219844,76.99248120300751,
1.686734909374022E12,9.703820908525099,76.99248120300751,
1.6867349093759749E12,9.698123299851812,76.99248120300751,
1.6867349093779277E12,9.711898530947987,76.99248120300751,
1.6867349093798806E12,9.708725179281853,76.99248120300751,
1.6867349093818335E12,9.705046976214287,76.99248120300751,
1.6867349093837864E12,9.709879125342265,76.99248120300751,
1.6867349093857393E12,9.71254762560697,76.99248120300751,
1.6867349093876921E12,9.711610044432884,76.99248120300751,
1.686734909389645E12,9.715648855644329,76.99248120300751,
1.686734909391598E12,9.700791800116516,76.99248120300751,
1.6867349093935508E12,9.700431191972637,76.99248120300751,
1.6867349093955037E12,9.690334163944026,76.99248120300751,
1.6867349093974565E12,9.697834813336708,76.99248120300751,
1.6867349093994094E12,9.70259484083591,76.99248120300751,
1.6867349094013623E12,9.716874923333517,76.99248120300751,
1.6867349094033152E12,9.711465801175333,76.99248120300751,
1.686734909405268E12,9.704758489699184,76.99248120300751,
1.686734909407221E12,9.690117799057699,76.99248120300751,
1.6867349094091738E12,9.704181516668978,76.99248120300751,
1.6867349094111267E12,9.690911136974233,76.99248120300751,
1.6867349094130796E12,9.696320259132417,76.99248120300751,
1.6867349094150325E12,9.698051178223036,76.99248120300751,
1.6867349094169854E12,9.70757123322144,76.99248120300751,
1.6867349094189382E12,9.714134301440037,76.99248120300751,
1.686734909420891E12,9.706489408789803,76.99248120300751,
1.686734909422844E12,9.701008165002843,76.99248120300751,
1.6867349094247969E12,9.683194122695223,76.99248120300751,
1.6867349094267498E12,9.691848718148318,76.99248120300751,
1.6867349094287026E12,9.69163235326199,76.99248120300751,
1.6867349094306555E12,9.69574328610221,76.99248120300751,
1.6867349094326084E12,9.6856462580736,76.99248120300751,
1.6867349094345613E12,9.705984557388373,76.99248120300751,
1.6867349094365142E12,9.707282746706337,76.99248120300751,
1.686734909438467E12,9.70122452988917,76.99248120300751,
1.68673490944042E12,9.693723880496488,76.99248120300751,
1.6867349094423728E12,9.70569607087327,76.99248120300751,
1.6867349094443257E12,9.692209326292197,76.99248120300751,
1.6867349094462786E12,9.686006866217479,76.99248120300751,
1.6867349094482314E12,9.702378475949583,76.99248120300751,
1.6867349094501843E12,9.695526921215883,76.99248120300751,
1.6867349094521372E12,9.709302152312059,76.99248120300751,
1.68673490945409E12,9.696392380761193,76.99248120300751,
1.686734909456043E12,9.69610389424609,76.99248120300751,
1.6867349094579958E12,9.701368773146722,76.99248120300751,
1.6867349094599487E12,9.69386812375404,76.99248120300751,
1.6867349094619016E12,9.695454799587107,76.99248120300751,
1.6867349094638545E12,9.698916637768345,76.99248120300751,
1.6867349094658074E12,9.70071967848774,76.99248120300751,
1.6867349094677603E12,9.705984557388373,76.99248120300751,
1.6867349094697131E12,9.706994260191234,76.99248120300751,
1.686734909471666E12,9.711610044432884,76.99248120300751,
1.686734909473619E12,9.709374273940835,76.99248120300751,
1.6867349094755718E12,9.70346030038122,76.99248120300751,
1.6867349094775244E12,9.700575435230189,76.99248120300751,
1.6867349094794773E12,9.698123299851812,76.99248120300751,
1.6867349094814302E12,9.702739084093462,76.99248120300751,
1.686734909483383E12,9.714278544697589,76.99248120300751,
1.686734909485336E12,9.733030168179294,76.99248120300751,
1.6867349094872888E12,9.731299249088675,76.99248120300751,
1.6867349094892417E12,9.720120396628428,76.99248120300751,
1.6867349094911946E12,9.720264639885979,76.99248120300751,
1.6867349094931475E12,9.725529518786612,76.99248120300751,
1.6867349094951003E12,9.733390776323173,76.99248120300751,
1.6867349094970532E12,9.723726478067217,76.99248120300751,
1.686734909499006E12,9.727837410907437,76.99248120300751,
1.686734909500959E12,9.729424086740504,76.99248120300751,
1.6867349095029119E12,9.737141101019514,76.99248120300751,
1.6867349095048647E12,9.729928938141935,76.99248120300751,
1.6867349095068176E12,9.735049573785016,76.99248120300751,
1.6867349095087705E12,9.72264465363558,76.99248120300751,
1.6867349095107234E12,9.721130099431289,76.99248120300751,
1.6867349095126763E12,9.72985681651316,76.99248120300751,
1.6867349095146292E12,9.736131398216653,76.99248120300751,
1.686734909516582E12,9.73310228980807,76.99248120300751,
1.686734909518535E12,9.740747182458303,76.99248120300751,
1.6867349095204878E12,9.737357465905841,76.99248120300751,
1.6867349095224407E12,9.718245234280257,76.99248120300751,
1.6867349095243936E12,9.707859719736543,76.99248120300751,
1.6867349095263464E12,9.700575435230189,76.99248120300751,
1.6867349095282993E12,9.687088690649116,76.99248120300751,
1.6867349095302522E12,9.719976153370876,76.99248120300751,
1.686734909532205E12,9.72762104602111,76.99248120300751,
1.686734909534158E12,9.730722276058469,76.99248120300751,
1.6867349095361108E12,9.727404681134782,76.99248120300751,
1.6867349095380637E12,9.73000105977071,76.99248120300751,
1.6867349095400166E12,9.721490707575168,76.99248120300751,
1.6867349095419695E12,9.700359070343861,76.99248120300751,
1.6867349095439224E12,9.68838687996708,76.99248120300751,
1.6867349095458752E12,9.688026271823201,76.99248120300751,
1.6867349095478281E12,9.690550528830354,76.99248120300751,
1.686734909549781E12,9.6924978128073,76.99248120300751,
1.686734909551734E12,9.699205124283448,76.99248120300751,
1.6867349095536868E12,9.697257840306502,76.99248120300751,
1.6867349095556396E12,9.68016501428664,76.99248120300751,
1.6867349095575925E12,9.680237135915416,76.99248120300751,
1.6867349095595454E12,9.684348068755636,76.99248120300751,
1.6867349095614983E12,9.683266244323999,76.99248120300751,
1.6867349095634512E12,9.67107768906089,76.99248120300751,
1.686734909565404E12,9.683554730839102,76.99248120300751,
1.686734909567357E12,9.690983258603008,76.99248120300751,
1.6867349095693098E12,9.702811205722238,76.99248120300751,
1.6867349095712627E12,9.690117799057699,76.99248120300751,
1.6867349095732156E12,9.676847419362954,76.99248120300751,
1.6867349095751685E12,9.677712878908263,76.99248120300751,
1.6867349095771213E12,9.67605408144642,76.99248120300751,
1.6867349095790742E12,9.671510418833545,76.99248120300751,
1.686734909581027E12,9.672303756750079,76.99248120300751,
1.68673490958298E12,9.675477108416214,76.99248120300751,
1.6867349095849329E12,9.682184419892362,76.99248120300751,
1.6867349095868857E12,9.693146907466282,76.99248120300751,
1.6867349095888386E12,9.686439595990134,76.99248120300751,
1.6867349095907915E12,9.679011068226227,76.99248120300751,
1.6867349095927444E12,9.678506216824797,76.99248120300751,
1.6867349095946973E12,9.665812810160258,76.99248120300751,
1.68673490959665E12,9.661269147547383,76.99248120300751,
1.6867349095986028E12,9.662134607092693,76.99248120300751,
1.6867349096005557E12,9.669779499742926,76.99248120300751,
1.6867349096025085E12,9.6719431486062,76.99248120300751,
1.6867349096044614E12,9.678650460082348,76.99248120300751,
1.6867349096064143E12,9.684564433641963,76.99248120300751,
1.6867349096083672E12,9.720481004772306,76.99248120300751,
1.68673490961032E12,9.73036166791459,76.99248120300751,
1.686734909612273E12,9.748319953479761,76.99248120300751,
1.6867349096142258E12,9.798083877335058,76.99248120300751,
1.6867349096161787E12,9.85390601800752,76.99248120300751,
1.6867349096181316E12,9.873883709178413,76.99248120300751,
1.6867349096200845E12,9.92638825492719,76.99248120300751,
1.6867349096220374E12,9.98170554419822,76.99248120300751,
1.6867349096239902E12,10.03312826551536,76.99248120300751,
1.686734909625943E12,10.066520579638551,76.99248120300751,
1.686734909627896E12,10.08282006774188,76.99248120300751,
1.6867349096298489E12,10.09291709577049,76.99248120300751,
1.6867349096318018E12,10.128617302014506,76.99248120300751,
1.6867349096337546E12,10.081666121681467,76.99248120300751,
1.6867349096357075E12,9.983220098402512,76.99248120300751,
1.6867349096376604E12,9.901289928113215,76.99248120300751,
1.6867349096396133E12,9.889317737736434,76.99248120300751,
1.6867349096415662E12,9.83335135380642,76.99248120300751,
1.686734909643519E12,9.773057672149859,76.99248120300751,
1.686734909645472E12,9.73634776310298,76.99248120300751,
1.6867349096474248E12,9.699133002654673,76.99248120300751,
1.6867349096493777E12,9.680092892657864,76.99248120300751,
1.6867349096513306E12,9.642950253838332,76.99248120300751,
1.6867349096532834E12,9.643310861982211,76.99248120300751,
1.6867349096552363E12,9.681174717089501,76.99248120300751,
1.6867349096571892E12,9.688747488110959,76.99248120300751,
1.686734909659142E12,9.693435393981385,76.99248120300751,
1.686734909661095E12,9.69026204231525,76.99248120300751,
1.6867349096630479E12,9.691271745118112,76.99248120300751,
1.6867349096650007E12,9.697329961935278,76.99248120300751,
1.6867349096669536E12,9.710167611857369,76.99248120300751,
1.6867349096689065E12,9.72451981598375,76.99248120300751,
1.6867349096708594E12,9.731299249088675,76.99248120300751,
1.6867349096728123E12,9.723726478067217,76.99248120300751,
1.6867349096747651E12,9.7130524770084,76.99248120300751,
1.686734909676718E12,9.706777895304906,76.99248120300751,
1.686734909678671E12,9.706273043903476,76.99248120300751,
1.6867349096806238E12,9.704758489699184,76.99248120300751,
1.6867349096845295E12,9.703316057123669,76.99248120300751,
1.6867349096864824E12,9.709085787425732,76.99248120300751,
1.6867349096884353E12,9.711105193031454,76.99248120300751,
1.6867349096903882E12,9.712908233750849,76.99248120300751,
1.686734909692341E12,9.706994260191234,76.99248120300751,
1.686734909694294E12,9.695094191443228,76.99248120300751,
1.6867349096962468E12,9.714134301440037,76.99248120300751,
1.6867349096981997E12,9.720697369658634,76.99248120300751,
1.6867349097001526E12,9.722284045491701,76.99248120300751,
1.6867349097021055E12,9.728774992081522,76.99248120300751,
1.6867349097040583E12,9.72726043787723,76.99248120300751,
1.6867349097060112E12,9.724736180870078,76.99248120300751,
1.686734909707964E12,9.73396774935338,76.99248120300751,
1.686734909709917E12,9.713196720265952,76.99248120300751,
1.6867349097118699E12,9.727765289278661,76.99248120300751,
1.6867349097138228E12,9.724952545756405,76.99248120300751,
1.6867349097157754E12,9.74182900688994,76.99248120300751,
1.6867349097177283E12,9.74543508832873,76.99248120300751,
1.6867349097196812E12,9.745867818101384,76.99248120300751,
1.686734909721634E12,9.748969048138743,76.99248120300751,
1.686734909723587E12,9.746012061358936,76.99248120300751,
1.6867349097255398E12,9.722284045491701,76.99248120300751,
1.6867349097274927E12,9.72300526177946,76.99248120300751,
1.6867349097294456E12,9.728053775793764,76.99248120300751,
1.6867349097313984E12,9.730938640944796,76.99248120300751,
1.6867349097333513E12,9.74081930408708,76.99248120300751,
1.6867349097353042E12,9.747454493934452,76.99248120300751,
1.686734909737257E12,9.747021764161797,76.99248120300751,
1.68673490973921E12,9.738799898481357,76.99248120300751,
1.6867349097411628E12,9.73670837124686,76.99248120300751,
1.6867349097431157E12,9.722572532006804,76.99248120300751,
1.6867349097450686E12,9.724808302498854,76.99248120300751,
1.6867349097470215E12,9.720625248029858,76.99248120300751,
1.6867349097489744E12,9.736131398216653,76.99248120300751,
1.6867349097509272E12,9.749473899540174,76.99248120300751,
1.6867349097528801E12,9.741901128518716,76.99248120300751,
1.686734909754833E12,9.735915033330325,76.99248120300751,
1.686734909756786E12,9.73584291170155,76.99248120300751,
1.6867349097587388E12,9.723654356438441,76.99248120300751,
1.6867349097606917E12,9.735410181928895,76.99248120300751,
1.6867349097626445E12,9.7404586959432,76.99248120300751,
1.6867349097645974E12,9.75005087257038,76.99248120300751,
1.6867349097665503E12,9.757695765220614,76.99248120300751,
1.6867349097685032E12,9.760652752000421,76.99248120300751,
1.686734909770456E12,9.761950941318386,76.99248120300751,
1.686734909772409E12,9.751637548403448,76.99248120300751,
1.6867349097743618E12,9.746228426245263,76.99248120300751,
1.6867349097763147E12,9.749257534653847,76.99248120300751,
1.6867349097782676E12,9.740747182458303,76.99248120300751,
1.6867349097802205E12,9.746228426245263,76.99248120300751,
1.6867349097821733E12,9.751853913289775,76.99248120300751,
1.6867349097841262E12,9.762600035977368,76.99248120300751,
1.686734909786079E12,9.769667955597397,76.99248120300751,
1.686734909788032E12,9.760796995257973,76.99248120300751,
1.6867349097899849E12,9.756109089387547,76.99248120300751,
1.6867349097919377E12,9.753801197266721,76.99248120300751,
1.6867349097938906E12,9.773706766808841,76.99248120300751,
1.6867349097958435E12,9.774427983096599,76.99248120300751,
1.6867349097977964E12,9.777024361732527,76.99248120300751,
1.6867349097997493E12,9.800536012713435,76.99248120300751,
1.6867349098017021E12,9.797290539418524,76.99248120300751,
1.686734909803655E12,9.801112985743641,76.99248120300751,
1.686734909805608E12,9.798444485478937,76.99248120300751,
1.6867349098075608E12,9.794333552638717,76.99248120300751,
1.6867349098095137E12,9.787409876276241,76.99248120300751,
1.6867349098114666E12,9.789717768397066,76.99248120300751,
1.6867349098134194E12,9.793035363320753,76.99248120300751,
1.6867349098153723E12,9.805007553697534,76.99248120300751,
1.6867349098173252E12,9.821234920172087,76.99248120300751,
1.686734909819278E12,9.81979248759657,76.99248120300751,
1.686734909821231E12,9.819359757823916,76.99248120300751,
1.6867349098231838E12,9.824913123239652,76.99248120300751,
1.6867349098251367E12,9.836164097328675,76.99248120300751,
1.6867349098270896E12,9.828807691193544,76.99248120300751,
1.6867349098290425E12,9.831404069829473,76.99248120300751,
1.6867349098309954E12,9.84020290854012,76.99248120300751,
1.6867349098329482E12,9.85130963937159,76.99248120300751,
1.686734909834901E12,9.850227814939954,76.99248120300751,
1.6867349098368538E12,9.850516301455057,76.99248120300751,
1.6867349098388066E12,9.861190302513874,76.99248120300751,
1.6867349098407595E12,9.859243018536928,76.99248120300751,
1.6867349098427124E12,9.852030855659349,76.99248120300751,
1.6867349098446653E12,9.845251422554425,76.99248120300751,
1.6867349098466182E12,9.852752071947107,76.99248120300751,
1.686734909848571E12,9.859819991567134,76.99248120300751,
1.686734909850524E12,9.862560613460614,76.99248120300751,
1.6867349098524768E12,9.867537005846144,76.99248120300751,
1.6867349098544297E12,9.887226210501934,76.99248120300751,
1.6867349098563826E12,9.871287330542485,76.99248120300751,
1.6867349098583354E12,9.873450979405758,76.99248120300751,
1.6867349098602883E12,9.87359522266331,76.99248120300751,
1.6867349098622412E12,9.868186100505126,76.99248120300751,
1.686734909864194E12,9.878355250162512,76.99248120300751,
1.686734909866147E12,9.876047358041687,76.99248120300751,
1.6867349098680999E12,9.887514697017037,76.99248120300751,
1.6867349098700527E12,9.891048656827053,76.99248120300751,
1.6867349098720056E12,9.87994192599558,76.99248120300751,
1.6867349098739585E12,9.868835195164108,76.99248120300751,
1.6867349098759114E12,9.868835195164108,76.99248120300751,
1.6867349098778643E12,9.873306736148207,76.99248120300751,
1.6867349098798171E12,9.86075757274122,76.99248120300751,
1.68673490988177E12,9.862344248574287,76.99248120300751,
1.686734909883723E12,9.866094573270628,76.99248120300751,
1.6867349098856758E12,9.879437074594149,76.99248120300751,
1.6867349098876287E12,9.873739465920861,76.99248120300751,
1.6867349098895815E12,9.851742369144246,76.99248120300751,
1.6867349098915344E12,9.830322245397836,76.99248120300751,
1.6867349098934873E12,9.81193123006001,76.99248120300751,
1.6867349098954402E12,9.8223888662325,76.99248120300751,
1.686734909897393E12,9.810777283999597,76.99248120300751,
1.686734909899346E12,9.811137892143476,76.99248120300751,
1.6867349099012988E12,9.81842217664983,76.99248120300751,
1.6867349099032517E12,9.799021458509143,76.99248120300751,
1.6867349099052046E12,9.787481997905017,76.99248120300751,
1.6867349099071575E12,9.788996552109309,76.99248120300751,
1.6867349099091104E12,9.777457091505182,76.99248120300751,
1.6867349099110632E12,9.762311549462265,76.99248120300751,
1.686734909913016E12,9.755964846129995,76.99248120300751,
1.686734909914969E12,9.754017562153049,76.99248120300751,
1.6867349099169219E12,9.749978750941604,76.99248120300751,
1.6867349099188748E12,9.759426684311233,76.99248120300751,
1.6867349099208276E12,9.752863616092636,76.99248120300751,
1.6867349099227805E12,9.741107790602182,76.99248120300751,
1.6867349099247334E12,9.739376871511563,76.99248120300751,
1.6867349099266863E12,9.724736180870078,76.99248120300751,
1.6867349099286392E12,9.727476802763558,76.99248120300751,
1.686734909930592E12,9.74456962878342,76.99248120300751,
1.686734909932545E12,9.737790195678496,76.99248120300751,
1.6867349099344978E12,9.745146601813627,76.99248120300751,
1.6867349099364507E12,9.73822292545115,76.99248120300751,
1.6867349099384036E12,9.732453195149088,76.99248120300751,
1.6867349099403564E12,9.71579309890188,76.99248120300751,
1.6867349099423093E12,9.703027570608565,76.99248120300751,
1.6867349099442622E12,9.704614246441633,76.99248120300751,
1.686734909946215E12,9.709662760455938,76.99248120300751,
1.686734909948168E12,9.717884626136378,76.99248120300751,
1.6867349099501208E12,9.72589012693049,76.99248120300751,
1.6867349099520737E12,9.721202221060064,76.99248120300751,
1.6867349099540266E12,9.724087086211096,76.99248120300751,
1.6867349099559792E12,9.722788896893132,76.99248120300751,
1.6867349099579321E12,9.71355732840983,76.99248120300751,
1.686734909959885E12,9.707210625077561,76.99248120300751,
1.686734909961838E12,9.70295544897979,76.99248120300751,
1.6867349099637908E12,9.70980700371349,76.99248120300751,
1.6867349099657437E12,9.711610044432884,76.99248120300751,
1.6867349099676965E12,9.716802801704741,76.99248120300751,
1.6867349099696494E12,9.709951246971041,76.99248120300751,
1.6867349099716023E12,9.707210625077561,76.99248120300751,
1.6867349099735552E12,9.70346030038122,76.99248120300751,
1.686734909975508E12,9.700142705457534,76.99248120300751,
1.686734909977461E12,9.691199623489336,76.99248120300751,
1.6867349099794138E12,9.698988759397121,76.99248120300751,
1.6867349099813667E12,9.70843669276675,76.99248120300751,
1.6867349099833196E12,9.715216125871674,76.99248120300751,
1.6867349099852725E12,9.717740382878826,76.99248120300751,
1.6867349099872253E12,9.717812504507602,76.99248120300751,
1.6867349099891782E12,9.711033071402678,76.99248120300751,
1.686734909991131E12,9.701008165002843,76.99248120300751,
1.686734909993084E12,9.697546326821605,76.99248120300751,
1.6867349099950369E12,9.693291150723834,76.99248120300751,
1.6867349099969897E12,9.69985421894243,76.99248120300751,
1.6867349099989426E12,9.722861018521908,76.99248120300751,
1.6867349100008955E12,9.730145303028262,76.99248120300751,
1.6867349100028484E12,9.72762104602111,76.99248120300751,
1.6867349100048013E12,9.715720977273104,76.99248120300751,
1.6867349100067542E12,9.705623949244494,76.99248120300751,
1.686734910008707E12,9.705119097843063,76.99248120300751,
1.68673491001066E12,9.70706638182001,76.99248120300751,
1.6867349100126128E12,9.702162111063256,76.99248120300751,
1.6867349100145657E12,9.712691868864521,83.02702702702703,
1.6867349100165186E12,9.722284045491701,83.02702702702703,
1.6867349100184714E12,9.72589012693049,83.02702702702703,
1.6867349100204243E12,9.717740382878826,83.02702702702703,
1.6867349100223772E12,9.717307653106172,83.02702702702703,
1.68673491002433E12,9.709230030683283,83.02702702702703,
1.686734910026283E12,9.716009463788208,83.02702702702703,
1.6867349100282358E12,9.705984557388373,83.02702702702703,
1.6867349100301887E12,9.707210625077561,83.02702702702703,
1.6867349100321416E12,9.716874923333517,83.02702702702703,
1.6867349100340945E12,9.732164708633984,83.02702702702703,
1.6867349100360474E12,9.7267555864758,83.02702702702703,
1.6867349100380002E12,9.718677964052912,83.02702702702703,
1.6867349100399531E12,9.715576734015553,83.02702702702703,
1.686734910041906E12,9.716370071932086,83.02702702702703,
1.686734910043859E12,9.703099692237341,83.02702702702703,
1.6867349100458118E12,9.710383976743696,83.02702702702703,
1.6867349100477646E12,9.723654356438441,83.02702702702703,
1.6867349100497175E12,9.719759788484549,83.02702702702703,
1.6867349100516704E12,9.723726478067217,83.02702702702703,
1.6867349100536233E12,9.72401496458232,83.02702702702703,
1.6867349100555762E12,9.715937342159432,83.02702702702703,
1.686734910057529E12,9.717235531477396,83.02702702702703,
1.686734910059482E12,9.715432490758001,83.02702702702703,
1.6867349100614348E12,9.717956747765154,83.02702702702703,
1.6867349100633877E12,9.714062179811261,83.02702702702703,
1.6867349100653406E12,9.717235531477396,83.02702702702703,
1.6867349100672935E12,9.71629795030331,83.02702702702703,
1.6867349100692463E12,9.73411199261093,83.02702702702703,
1.6867349100711992E12,9.749257534653847,83.02702702702703,
1.686734910073152E12,9.730938640944796,83.02702702702703,
1.6867349100751047E12,9.72625073507437,83.02702702702703,
1.6867349100770576E12,9.72351011318089,83.02702702702703,
1.6867349100790105E12,9.707715476478992,83.02702702702703,
1.6867349100809634E12,9.710383976743696,83.02702702702703,
1.6867349100829163E12,9.72127434268884,83.02702702702703,
1.6867349100848691E12,9.733462897951949,83.02702702702703,
1.686734910086822E12,9.727548924392334,83.02702702702703,
1.686734910088775E12,9.73721322264829,83.02702702702703,
1.6867349100907278E12,9.721490707575168,83.02702702702703,
1.6867349100926807E12,9.724303451097423,83.02702702702703,
1.6867349100946335E12,9.709013665796956,83.02702702702703,
1.6867349100965864E12,9.712259139091866,83.02702702702703,
1.6867349100985393E12,9.728342262308868,83.02702702702703,
1.6867349101004922E12,9.720985856173737,83.02702702702703,
1.686734910102445E12,9.728774992081522,83.02702702702703,
1.686734910104398E12,9.726034370188042,83.02702702702703,
1.6867349101063508E12,9.716514315189638,83.02702702702703,
1.6867349101083037E12,9.715720977273104,83.02702702702703,
1.6867349101102566E12,9.703820908525099,83.02702702702703,
1.6867349101122095E12,9.704470003184081,83.02702702702703,
1.6867349101141624E12,9.725024667385181,83.02702702702703,
1.6867349101161152E12,9.716514315189638,83.02702702702703,
1.686734910118068E12,9.721130099431289,83.02702702702703,
1.686734910120021E12,9.730145303028262,83.02702702702703,
1.6867349101219739E12,9.733318654694397,83.02702702702703,
1.6867349101239268E12,9.722067680605374,83.02702702702703,
1.6867349101258796E12,9.711465801175333,83.02702702702703,
1.6867349101278325E12,9.714855517727795,83.02702702702703,
1.6867349101297854E12,9.70208998943448,83.02702702702703,
1.6867349101317383E12,9.717019166591069,83.02702702702703,
1.6867349101336912E12,9.709518517198386,83.02702702702703,
1.686734910135644E12,9.713990058182485,83.02702702702703,
1.686734910137597E12,9.717235531477396,83.02702702702703,
1.6867349101395498E12,9.705191219471839,83.02702702702703,
1.6867349101415027E12,9.710600341630023,83.02702702702703,
1.6867349101434556E12,9.707210625077561,83.02702702702703,
1.6867349101454084E12,9.70569607087327,83.02702702702703,
1.6867349101473613E12,9.705984557388373,83.02702702702703,
1.6867349101493142E12,9.728414383937643,83.02702702702703,
1.686734910151267E12,9.720841612916185,83.02702702702703,
1.68673491015322E12,9.721851315719046,83.02702702702703,
1.6867349101551729E12,9.715937342159432,83.02702702702703,
1.6867349101571257E12,9.702883327351014,83.02702702702703,
1.6867349101590786E12,9.708364571137974,83.02702702702703,
1.6867349101610315E12,9.701657259661825,83.02702702702703,
1.6867349101629844E12,9.707859719736543,83.02702702702703,
1.6867349101649373E12,9.72213980223415,83.02702702702703,
1.6867349101668901E12,9.707138503448785,83.02702702702703,
1.686734910168843E12,9.72314950503701,83.02702702702703,
1.686734910170796E12,9.720481004772306,83.02702702702703,
1.6867349101727488E12,9.700431191972637,83.02702702702703,
1.6867349101747017E12,9.703027570608565,83.02702702702703,
1.6867349101766545E12,9.694300853526695,83.02702702702703,
1.6867349101786074E12,9.69437297515547,83.02702702702703,
1.6867349101805603E12,9.699205124283448,83.02702702702703,
1.6867349101825132E12,9.70980700371349,83.02702702702703,
1.686734910184466E12,9.71031185511492,83.02702702702703,
1.686734910186419E12,9.714278544697589,83.02702702702703,
1.6867349101883718E12,9.708725179281853,83.02702702702703,
1.6867349101903247E12,9.690839015345457,83.02702702702703,
1.6867349101922776E12,9.699998462199982,83.02702702702703,
1.6867349101942302E12,9.693579637238937,83.02702702702703,
1.686734910196183E12,9.696825110533847,83.02702702702703,
1.686734910198136E12,9.696680867276296,83.02702702702703,
1.6867349102000889E12,9.708364571137974,83.02702702702703,
1.6867349102020417E12,9.715865220530656,83.02702702702703,
1.6867349102039946E12,9.706128800645924,83.02702702702703,
1.6867349102059475E12,9.70396515178265,83.02702702702703,
1.6867349102079004E12,9.704181516668978,83.02702702702703,
1.6867349102098533E12,9.694877826556901,83.02702702702703,
1.6867349102118062E12,9.685502014816048,83.02702702702703,
1.686734910213759E12,9.68975719091382,83.02702702702703,
1.686734910215712E12,9.699565732427327,83.02702702702703,
1.6867349102176648E12,9.702017867805704,83.02702702702703,
1.6867349102196177E12,9.715360369129225,83.02702702702703,
1.6867349102215706E12,9.707715476478992,83.02702702702703,
1.6867349102235234E12,9.700142705457534,83.02702702702703,
1.6867349102254763E12,9.691199623489336,83.02702702702703,
1.6867349102274292E12,9.6924978128073,83.02702702702703,
1.686734910229382E12,9.68838687996708,83.02702702702703,
1.686734910231335E12,9.700863921745292,83.02702702702703,
1.6867349102332878E12,9.709734882084714,83.02702702702703,
1.6867349102352407E12,9.710383976743696,83.02702702702703,
1.6867349102371936E12,9.698051178223036,83.02702702702703,
1.6867349102391465E12,9.700286948715085,83.02702702702703,
1.6867349102410994E12,9.697546326821605,83.02702702702703,
1.6867349102430522E12,9.693074785837506,83.02702702702703,
1.6867349102450051E12,9.689108096254838,83.02702702702703,
1.686734910246958E12,9.689180217883614,83.02702702702703,
1.686734910248911E12,9.710960949773902,83.02702702702703,
1.6867349102508638E12,9.702811205722238,83.02702702702703,
1.6867349102528167E12,9.715576734015553,83.02702702702703,
1.6867349102547695E12,9.714134301440037,83.02702702702703,
1.6867349102567224E12,9.705119097843063,83.02702702702703,
1.6867349102586753E12,9.691560231633215,83.02702702702703,
1.6867349102606282E12,9.689035974626062,83.02702702702703,
1.686734910262581E12,9.692425691178524,83.02702702702703,
1.686734910264534E12,9.705840314130821,83.02702702702703,
1.6867349102664868E12,9.714855517727795,83.02702702702703,
1.6867349102684397E12,9.718822207310463,83.02702702702703,
1.6867349102703926E12,9.70894154416818,83.02702702702703,
1.6867349102723455E12,9.69985421894243,83.02702702702703,
1.6867349102742983E12,9.71081670651635,83.02702702702703,
1.6867349102762512E12,9.71117731466023,83.02702702702703,
1.686734910278204E12,9.704686368070409,83.02702702702703,
1.686734910280157E12,9.713196720265952,83.02702702702703,
1.6867349102821099E12,9.728702870452747,83.02702702702703,
1.6867349102840627E12,9.741540520374837,83.02702702702703,
1.6867349102860156E12,9.738944141738909,83.02702702702703,
1.6867349102879685E12,9.72762104602111,83.02702702702703,
1.6867349102899214E12,9.718245234280257,83.02702702702703,
1.6867349102918743E12,9.706489408789803,83.02702702702703,
1.6867349102938271E12,9.711393679546557,83.02702702702703,
1.68673491029578E12,9.724231329468648,83.02702702702703,
1.686734910297733E12,9.724591937612526,83.02702702702703,
1.6867349102996858E12,9.738295047079927,83.02702702702703,
1.6867349103016387E12,9.741396277117286,83.02702702702703,
1.6867349103035916E12,9.742910831321577,83.02702702702703,
1.6867349103055444E12,9.732020465376433,83.02702702702703,
1.6867349103074973E12,9.720625248029858,83.02702702702703,
1.6867349103094502E12,9.713413085152279,83.02702702702703,
1.686734910311403E12,9.715432490758001,83.02702702702703,
1.686734910313356E12,9.73670837124686,83.02702702702703,
1.6867349103153086E12,9.74355992598056,83.02702702702703,
1.6867349103172615E12,9.744497507154644,83.02702702702703,
1.6867349103192144E12,9.748247831850986,83.02702702702703,
1.6867349103211672E12,9.7473102506769,83.02702702702703,
1.68673491032312E12,9.745507209957506,83.02702702702703,
1.686734910325073E12,9.729279843482953,83.02702702702703,
1.686734910327026E12,9.726611343218249,83.02702702702703,
1.6867349103289788E12,9.719976153370876,83.02702702702703,
1.6867349103309316E12,9.72574588367294,83.02702702702703,
1.6867349103328845E12,9.729279843482953,83.02702702702703,
1.6867349103348374E12,9.722788896893132,83.02702702702703,
1.6867349103367903E12,9.722428288749253,83.02702702702703,
1.6867349103387432E12,9.715937342159432,83.02702702702703,
1.686734910340696E12,9.708869422539404,83.02702702702703,
1.686734910342649E12,9.69336327235261,83.02702702702703,
1.6867349103446018E12,9.684203825498084,83.02702702702703,
1.6867349103465547E12,9.682184419892362,83.02702702702703,
1.6867349103485076E12,9.676414689590299,83.02702702702703,
1.6867349103504604E12,9.687160812277892,83.02702702702703,
1.6867349103524133E12,9.70259484083591,83.02702702702703,
1.6867349103543662E12,9.694517218413022,83.02702702702703,
1.686734910356319E12,9.69112750186056,83.02702702702703,
1.686734910358272E12,9.699782097313655,83.02702702702703,
1.6867349103602249E12,9.683049879437672,83.02702702702703,
1.6867349103621777E12,9.676775297734178,83.02702702702703,
1.6867349103641306E12,9.678938946597452,83.02702702702703,
1.6867349103660835E12,9.673529824439267,83.02702702702703,
1.6867349103680364E12,9.682256541521138,83.02702702702703,
1.6867349103699893E12,9.698195421480587,83.02702702702703,
1.6867349103719421E12,9.692353569549748,83.02702702702703,
1.686734910373895E12,9.671798905348648,83.02702702702703,
1.686734910375848E12,9.670428594401908,83.02702702702703,
1.6867349103778008E12,9.670717080917012,83.02702702702703,
1.6867349103797537E12,9.670933445803339,83.02702702702703,
1.6867349103817065E12,9.667904337394756,83.02702702702703,
1.6867349103836594E12,9.68290563618012,83.02702702702703,
1.6867349103856123E12,9.687232933906667,83.02702702702703,
1.6867349103875652E12,9.680814108945622,83.02702702702703,
1.686734910389518E12,9.676847419362954,83.02702702702703,
1.686734910391471E12,9.68153532523338,83.02702702702703,
1.6867349103934238E12,9.687809906936874,83.02702702702703,
1.6867349103953767E12,9.668841918568841,83.02702702702703,
1.6867349103973296E12,9.661629755691262,83.02702702702703,
1.6867349103992825E12,9.671221932318442,83.02702702702703,
1.6867349104012354E12,9.686728082505237,83.02702702702703,
1.6867349104031882E12,9.68838687996708,83.02702702702703,
1.686734910405141E12,9.715576734015553,83.02702702702703,
1.686734910407094E12,9.718317355909033,83.02702702702703,
1.6867349104090469E12,9.748392075108537,83.02702702702703,
1.6867349104109998E12,9.780558321542541,83.02702702702703,
1.6867349104129526E12,9.798300242221385,83.02702702702703,
1.6867349104149055E12,9.839986543653792,83.02702702702703,
1.6867349104168584E12,9.89314018406155,83.02702702702703,
1.6867349104188113E12,9.971392151283283,83.02702702702703,
1.6867349104207642E12,10.02988279222045,83.02702702702703,
1.686734910422717E12,10.066809066153654,83.02702702702703,
1.68673491042467E12,10.098326217928674,83.02702702702703,
1.6867349104266228E12,10.09205163622518,83.02702702702703,
1.6867349104285757E12,10.108783854101164,83.02702702702703,
1.6867349104305286E12,10.096378933951728,83.02702702702703,
1.6867349104324814E12,10.07012666107734,83.02702702702703,
1.686734910434434E12,10.051591402481963,83.02702702702703,
1.686734910436387E12,9.9296337282221,83.02702702702703,
1.6867349104383398E12,9.889750467509089,83.02702702702703,
1.6867349104402927E12,9.796208714986888,83.02702702702703,
1.6867349104422456E12,9.766999455332693,83.02702702702703,
1.6867349104441985E12,9.726178613445594,83.02702702702703,
1.6867349104461514E12,9.693940245382816,83.02702702702703,
1.6867349104481042E12,9.656220633533078,83.02702702702703,
1.6867349104500571E12,9.645979362246916,83.02702702702703,
1.68673491045201E12,9.665235837130052,83.02702702702703,
1.686734910453963E12,9.69574328610221,83.02702702702703,
1.6867349104559158E12,9.697762691707933,83.02702702702703,
1.6867349104578687E12,9.69660874564752,83.02702702702703,
1.6867349104598215E12,9.68615110947503,83.02702702702703,
1.6867349104617744E12,9.681823811748483,83.02702702702703,
1.6867349104637273E12,9.697329961935278,83.02702702702703,
1.6867349104656802E12,9.703243935494893,83.02702702702703,
1.686734910467633E12,9.69884451613957,83.02702702702703,
1.686734910469586E12,9.708508814395525,83.02702702702703,
1.6867349104715388E12,9.702666962464686,83.02702702702703,
1.6867349104734917E12,9.709013665796956,83.02702702702703,
1.6867349104754446E12,9.703099692237341,83.02702702702703,
1.6867349104773975E12,9.704109395040202,83.02702702702703,
1.6867349104793503E12,9.695166313072004,83.02702702702703,
1.6867349104813032E12,9.707138503448785,83.02702702702703,
1.686734910483256E12,9.709302152312059,83.02702702702703,
1.686734910485209E12,9.699060881025897,83.02702702702703,
1.6867349104871619E12,9.720481004772306,83.02702702702703,
1.6867349104891147E12,9.696752988905072,83.02702702702703,
1.6867349104910676E12,9.709013665796956,83.02702702702703,
1.6867349104930205E12,9.708003962994095,83.02702702702703,
1.6867349104949734E12,9.718677964052912,83.02702702702703,
1.6867349104969263E12,9.714567031212692,83.02702702702703,
1.6867349104988792E12,9.710167611857369,83.02702702702703,
1.686734910500832E12,9.722428288749253,83.02702702702703,
1.686734910502785E12,9.718173112651481,83.02702702702703,
1.6867349105047378E12,9.722211923862925,83.02702702702703,
1.6867349105066907E12,9.714567031212692,83.02702702702703,
1.6867349105086436E12,9.708364571137974,83.02702702702703,
1.6867349105105964E12,9.697257840306502,83.02702702702703,
1.6867349105125493E12,9.703027570608565,83.02702702702703,
1.6867349105145022E12,9.71355732840983,83.02702702702703,
1.686734910516455E12,9.728774992081522,83.02702702702703,
1.686734910518408E12,9.731587735603778,83.02702702702703,
1.6867349105203608E12,9.736780492875635,83.02702702702703,
1.6867349105223137E12,9.72076949128741,83.02702702702703,
1.6867349105242666E12,9.709302152312059,83.02702702702703,
1.6867349105262195E12,9.722572532006804,83.02702702702703,
1.6867349105281724E12,9.714783396099019,83.02702702702703,
1.6867349105301252E12,9.720264639885979,83.02702702702703,
1.6867349105320781E12,9.718317355909033,83.02702702702703,
1.686734910534031E12,9.731804100490105,83.02702702702703,
1.686734910535984E12,9.736636249618083,83.02702702702703,
1.6867349105379368E12,9.719254937083118,83.02702702702703,
1.6867349105398896E12,9.722933140150683,83.02702702702703,
1.6867349105418425E12,9.717740382878826,83.02702702702703,
1.6867349105437954E12,9.71903857219679,83.02702702702703,
1.6867349105457483E12,9.717956747765154,83.02702702702703,
1.6867349105477012E12,9.73000105977071,83.02702702702703,
1.686734910549654E12,9.730433789543365,83.02702702702703,
1.686734910551607E12,9.742766588064026,83.02702702702703,
1.6867349105535596E12,9.733462897951949,83.02702702702703,
1.6867349105555125E12,9.716874923333517,83.02702702702703,
1.6867349105574653E12,9.719327058711894,83.02702702702703,
1.6867349105594182E12,9.707210625077561,83.02702702702703,
1.686734910561371E12,9.719327058711894,83.02702702702703,
1.686734910563324E12,9.745723574843833,83.02702702702703,
1.6867349105652769E12,9.757190913819183,83.02702702702703,
1.6867349105672297E12,9.742838709692801,83.02702702702703,
1.6867349105691826E12,9.75740727870551,83.02702702702703,
1.6867349105711355E12,9.754955143327134,83.02702702702703,
1.6867349105730884E12,9.7380786821936,83.02702702702703,
1.6867349105750413E12,9.745146601813627,83.02702702702703,
1.6867349105769941E12,9.737645952420944,83.02702702702703,
1.686734910578947E12,9.72949620836928,83.02702702702703,
1.6867349105809E12,9.75452241355448,83.02702702702703,
1.6867349105828528E12,9.75466665681203,83.02702702702703,
1.6867349105848057E12,9.75690242730408,83.02702702702703,
1.6867349105867585E12,9.765484901128401,83.02702702702703,
1.6867349105887114E12,9.76772067162045,83.02702702702703,
1.6867349105906643E12,9.771398874688016,83.02702702702703,
1.6867349105926172E12,9.770966144915361,83.02702702702703,
1.68673491059457E12,9.763032765750022,83.02702702702703,
1.686734910596523E12,9.772408577490877,83.02702702702703,
1.6867349105984758E12,9.774427983096599,83.02702702702703,
1.6867349106004287E12,9.786328051844604,83.02702702702703,
1.6867349106023816E12,9.781495902716626,83.02702702702703,
1.6867349106043345E12,9.783587429951124,83.02702702702703,
1.6867349106062874E12,9.788419579079102,83.02702702702703,
1.6867349106082402E12,9.785678957185622,83.02702702702703,
1.686734910610193E12,9.779404375482128,83.02702702702703,
1.686734910612146E12,9.79685780964587,83.02702702702703,
1.6867349106140989E12,9.804286337409776,83.02702702702703,
1.6867349106160518E12,9.802122688546502,83.02702702702703,
1.6867349106180046E12,9.807099080932032,83.02702702702703,
1.6867349106199575E12,9.82116279854331,83.02702702702703,
1.6867349106219104E12,9.820080974111674,83.02702702702703,
1.6867349106238633E12,9.815465189870023,83.02702702702703,
1.6867349106258162E12,9.819576122710243,83.02702702702703,
1.686734910627769E12,9.810705162370821,83.02702702702703,
1.686734910629722E12,9.819576122710243,83.02702702702703,
1.6867349106316748E12,9.834793786381935,83.02702702702703,
1.6867349106336277E12,9.844962936039321,83.02702702702703,
1.6867349106355806E12,9.856069666870793,83.02702702702703,
1.6867349106375334E12,9.855132085696708,83.02702702702703,
1.6867349106394863E12,9.84020290854012,83.02702702702703,
1.6867349106414392E12,9.84344838183503,83.02702702702703,
1.686734910643392E12,9.840779881570326,83.02702702702703,
1.686734910645345E12,9.841428976229308,83.02702702702703,
1.6867349106472979E12,9.85715149130243,83.02702702702703,
1.6867349106492507E12,9.85441086940895,83.02702702702703,
1.6867349106512036E12,9.871503695428812,83.02702702702703,
1.6867349106531565E12,9.880230412510683,83.02702702702703,
1.6867349106551094E12,9.876047358041687,83.02702702702703,
1.6867349106570623E12,9.877634033874754,83.02702702702703,
1.6867349106590151E12,9.858089072476515,83.02702702702703,
1.686734910660968E12,9.86039696459734,83.02702702702703,
1.686734910662921E12,9.869195803307987,83.02702702702703,
1.6867349106648738E12,9.894798981523394,83.02702702702703,
1.6867349106668267E12,9.868186100505126,83.02702702702703,
1.6867349106824495E12,9.859819991567134,83.02702702702703,
1.6867349106844023E12,9.865733965126749,83.02702702702703,
1.6867349106863552E12,9.868835195164108,83.02702702702703,
1.686734910688308E12,9.855492693840587,83.02702702702703,
1.686734910690261E12,9.851093274485264,83.02702702702703,
1.6867349106922139E12,9.833062867291316,83.02702702702703,
1.6867349106941667E12,9.819431879452692,83.02702702702703,
1.6867349106961196E12,9.815320946612472,83.02702702702703,
1.6867349106980725E12,9.80334875623569,83.02702702702703,
1.6867349107000254E12,9.82015309574045,83.02702702702703,
1.6867349107019783E12,9.82289371763393,83.02702702702703,
1.6867349107039312E12,9.82289371763393,83.02702702702703,
1.686734910705884E12,9.795631741956681,83.02702702702703,
1.686734910707837E12,9.786111686958277,83.02702702702703,
1.6867349107097898E12,9.774644347982926,83.02702702702703,
1.6867349107117427E12,9.76000365734144,83.02702702702703,
1.6867349107136956E12,9.767143698590244,83.02702702702703,
1.6867349107156484E12,9.76534065787085,83.02702702702703,
1.6867349107176013E12,9.776663753588648,83.02702702702703,
1.6867349107195542E12,9.765268536242074,83.02702702702703,
1.686734910721507E12,9.747093885790573,83.02702702702703,
1.68673491072346E12,9.739232628254012,83.02702702702703,
1.6867349107254128E12,9.725601640415388,83.02702702702703,
1.6867349107273657E12,9.731587735603778,83.02702702702703,
1.6867349107293186E12,9.727693167649885,83.02702702702703,
1.6867349107312715E12,9.727693167649885,83.02702702702703,
1.6867349107332244E12,9.732092587005209,83.02702702702703,
1.6867349107351772E12,9.719831910113324,83.02702702702703,
1.6867349107371301E12,9.73634776310298,83.02702702702703,
1.686734910739083E12,9.725529518786612,83.02702702702703,
1.686734910741036E12,9.729928938141935,83.02702702702703,
1.6867349107429888E12,9.738295047079927,83.02702702702703,
1.6867349107449417E12,9.711249436289005,83.02702702702703,
1.6867349107468945E12,9.718317355909033,83.02702702702703,
1.6867349107488474E12,9.724087086211096,83.02702702702703,
1.6867349107508003E12,9.725168910642733,83.02702702702703,
1.6867349107527532E12,9.734833208898689,83.02702702702703,
1.686734910754706E12,9.724808302498854,83.02702702702703,
1.686734910756659E12,9.718245234280257,83.02702702702703,
1.6867349107586118E12,9.718894328939239,83.02702702702703,
1.6867349107605647E12,9.707426989963889,83.02702702702703,
1.6867349107625176E12,9.712475503978194,83.02702702702703,
1.6867349107644705E12,9.714206423068813,83.02702702702703,
1.6867349107664233E12,9.719182815454342,83.02702702702703,
1.6867349107683762E12,9.71031185511492,83.02702702702703,
1.686734910770329E12,9.709734882084714,83.02702702702703,
1.686734910772282E12,9.714350666326364,83.02702702702703,
1.6867349107742349E12,9.698267543109363,83.02702702702703,
1.6867349107761877E12,9.702234232692032,83.02702702702703,
1.6867349107781406E12,9.705407584358166,83.02702702702703,
1.6867349107800935E12,9.725313153900284,83.02702702702703,
1.6867349107820464E12,9.720985856173737,83.02702702702703,
1.6867349107839993E12,9.729207721854177,83.02702702702703,
1.6867349107859521E12,9.72812589742254,83.02702702702703,
1.686734910787905E12,9.736275641474204,83.02702702702703,
1.686734910789858E12,9.730938640944796,83.02702702702703,
1.6867349107918108E12,9.719327058711894,75.11002444987776,
1.6867349107937634E12,9.705623949244494,75.11002444987776,
1.6867349107957163E12,9.722716775264356,75.11002444987776,
1.6867349107976692E12,9.71391793655371,75.11002444987776,
1.686734910799622E12,9.722572532006804,75.11002444987776,
1.686734910801575E12,9.732381073520312,75.11002444987776,
1.6867349108035278E12,9.738150803822375,75.11002444987776,
1.6867349108054807E12,9.722428288749253,75.11002444987776,
1.6867349108074336E12,9.718173112651481,75.11002444987776,
1.6867349108093865E12,9.715360369129225,75.11002444987776,
1.6867349108113394E12,9.704902732956736,75.11002444987776,
1.6867349108132922E12,9.713990058182485,75.11002444987776,
1.686734910815245E12,9.716947044962293,75.11002444987776,
1.686734910817198E12,9.716153707045759,75.11002444987776,
1.686734910819151E12,9.73396774935338,75.11002444987776,
1.6867349108211038E12,9.72726043787723,75.11002444987776,
1.6867349108230566E12,9.71081670651635,75.11002444987776,
1.6867349108250095E12,9.716370071932086,75.11002444987776,
1.6867349108269624E12,9.712691868864521,75.11002444987776,
1.6867349108289153E12,9.715071882614122,75.11002444987776,
1.6867349108308682E12,9.721057977802513,75.11002444987776,
1.686734910832821E12,9.728198019051316,75.11002444987776,
1.686734910834774E12,9.732813803292967,75.11002444987776,
1.6867349108367268E12,9.72538527552906,75.11002444987776,
1.6867349108386797E12,9.718677964052912,75.11002444987776,
1.6867349108406326E12,9.711321557917781,75.11002444987776,
1.6867349108425854E12,9.723293748294562,75.11002444987776,
1.6867349108445383E12,9.711033071402678,75.11002444987776,
1.6867349108464912E12,9.708797300910629,75.11002444987776,
1.686734910848444E12,9.70944639556961,75.11002444987776,
1.686734910850397E12,9.701873624548153,75.11002444987776,
1.6867349108523499E12,9.705551827615718,75.11002444987776,
1.6867349108543027E12,9.712619747235745,75.11002444987776,
1.6867349108562556E12,9.723293748294562,75.11002444987776,
1.6867349108582085E12,9.726539221589473,75.11002444987776,
1.6867349108601614E12,9.705263341100615,75.11002444987776,
1.6867349108621143E12,9.713413085152279,75.11002444987776,
1.6867349108640671E12,9.722284045491701,75.11002444987776,
1.68673491086602E12,9.748031466964658,75.11002444987776,
1.686734910867973E12,9.733030168179294,75.11002444987776,
1.6867349108699258E12,9.722572532006804,75.11002444987776,
1.6867349108718787E12,9.732020465376433,75.11002444987776,
1.6867349108738315E12,9.717379774734948,75.11002444987776,
1.6867349108757844E12,9.707426989963889,75.11002444987776,
1.6867349108777373E12,9.712114895834315,75.11002444987776,
1.6867349108796902E12,9.721130099431289,75.11002444987776,
1.686734910881643E12,9.712691868864521,75.11002444987776,
1.686734910883596E12,9.732525316777863,75.11002444987776,
1.6867349108855488E12,9.732092587005209,75.11002444987776,
1.6867349108875017E12,9.725096789013957,75.11002444987776,
1.6867349108894546E12,9.722067680605374,75.11002444987776,
1.6867349108914075E12,9.716730680075965,75.11002444987776,
1.6867349108933604E12,9.71254762560697,75.11002444987776,
1.6867349108953132E12,9.715071882614122,75.11002444987776,
1.686734910897266E12,9.722572532006804,75.11002444987776,
1.686734910899219E12,9.719615545226997,75.11002444987776,
1.6867349109011719E12,9.717884626136378,75.11002444987776,
1.6867349109031248E12,9.725529518786612,75.11002444987776,
1.6867349109050776E12,9.717812504507602,75.11002444987776,
1.6867349109070305E12,9.706345165532252,75.11002444987776,
1.6867349109089834E12,9.701368773146722,75.11002444987776,
1.6867349109109363E12,9.698051178223036,75.11002444987776,
1.686734910912889E12,9.711249436289005,75.11002444987776,
1.6867349109148418E12,9.712114895834315,75.11002444987776,
1.6867349109167947E12,9.712331260720642,75.11002444987776,
1.6867349109187476E12,9.718605842424136,75.11002444987776,
1.6867349109207004E12,9.716586436818414,75.11002444987776,
1.6867349109226533E12,9.715216125871674,75.11002444987776,
1.6867349109246062E12,9.708508814395525,75.11002444987776,
1.686734910926559E12,9.706128800645924,75.11002444987776,
1.686734910928512E12,9.706273043903476,75.11002444987776,
1.6867349109304648E12,9.71254762560697,75.11002444987776,
1.6867349109324177E12,9.712763990493297,75.11002444987776,
1.6867349109343706E12,9.715071882614122,75.11002444987776,
1.6867349109363235E12,9.710095490228593,75.11002444987776,
1.6867349109382764E12,9.709157909054507,75.11002444987776,
1.6867349109402292E12,9.71081670651635,75.11002444987776,
1.6867349109421821E12,9.71528824750045,75.11002444987776,
1.686734910944135E12,9.707859719736543,75.11002444987776,
1.686734910946088E12,9.721923437347822,75.11002444987776,
1.6867349109480408E12,9.720553126401082,75.11002444987776,
1.6867349109499937E12,9.711970652576763,75.11002444987776,
1.6867349109519465E12,9.71254762560697,75.11002444987776,
1.6867349109538994E12,9.722284045491701,75.11002444987776,
1.6867349109558523E12,9.712763990493297,75.11002444987776,
1.6867349109578052E12,9.704542124812857,75.11002444987776,
1.686734910959758E12,9.700936043374067,75.11002444987776,
1.686734910961711E12,9.697185718677726,75.11002444987776,
1.6867349109636638E12,9.693723880496488,75.11002444987776,
1.6867349109656167E12,9.72163495083272,75.11002444987776,
1.6867349109675696E12,9.720553126401082,75.11002444987776,
1.6867349109695225E12,9.717812504507602,75.11002444987776,
1.6867349109714753E12,9.712691868864521,75.11002444987776,
1.6867349109734282E12,9.702739084093462,75.11002444987776,
1.686734910975381E12,9.690694772087905,75.11002444987776,
1.686734910977334E12,9.685502014816048,75.11002444987776,
1.6867349109792869E12,9.684708676899515,75.11002444987776,
1.6867349109812397E12,9.694084488640367,75.11002444987776,
1.6867349109831926E12,9.705623949244494,75.11002444987776,
1.6867349109851455E12,9.710744584887575,75.11002444987776,
1.6867349109870984E12,9.726611343218249,75.11002444987776,
1.6867349109890513E12,9.7312271274599,75.11002444987776,
1.6867349109910042E12,9.710744584887575,75.11002444987776,
1.686734910992957E12,9.700286948715085,75.11002444987776,
1.68673491099491E12,9.689396582769941,75.11002444987776,
1.6867349109968628E12,9.699565732427327,75.11002444987776,
1.6867349109988157E12,9.700503313601413,75.11002444987776,
1.6867349110007686E12,9.705263341100615,75.11002444987776,
1.6867349110027214E12,9.719327058711894,75.11002444987776,
1.6867349110046743E12,9.718100991022705,75.11002444987776,
1.6867349110066272E12,9.710744584887575,75.11002444987776,
1.68673491100858E12,9.695382677958332,75.11002444987776,
1.686734911010533E12,9.70122452988917,75.11002444987776,
1.6867349110124858E12,9.715648855644329,75.11002444987776,
1.6867349110144387E12,9.712691868864521,75.11002444987776,
1.6867349110163916E12,9.706922138562458,75.11002444987776,
1.6867349110183445E12,9.709734882084714,75.11002444987776,
1.6867349110202974E12,9.700070583828758,75.11002444987776,
1.6867349110222502E12,9.702811205722238,75.11002444987776,
1.6867349110242031E12,9.705479705986942,75.11002444987776,
1.686734911026156E12,9.699349367541,75.11002444987776,
1.686734911028109E12,9.702883327351014,75.11002444987776,
1.6867349110300618E12,9.707210625077561,75.11002444987776,
1.6867349110320144E12,9.701729381290601,75.11002444987776,
1.6867349110339673E12,9.704902732956736,75.11002444987776,
1.6867349110359202E12,9.71168216606166,75.11002444987776,
1.686734911037873E12,9.717307653106172,75.11002444987776,
1.686734911039826E12,9.711610044432884,75.11002444987776,
1.6867349110417788E12,9.699349367541,75.11002444987776,
1.6867349110437317E12,9.69300266420873,75.11002444987776,
1.6867349110456846E12,9.692425691178524,75.11002444987776,
1.6867349110476375E12,9.703893030153875,75.11002444987776,
1.6867349110495903E12,9.70757123322144,75.11002444987776,
1.6867349110515432E12,9.715648855644329,75.11002444987776,
1.686734911053496E12,9.712259139091866,75.11002444987776,
1.686734911055449E12,9.706777895304906,75.11002444987776,
1.6867349110574019E12,9.704974854585512,75.11002444987776,
1.6867349110593547E12,9.68204017663481,75.11002444987776,
1.6867349110613076E12,9.690189920686475,75.11002444987776,
1.6867349110632605E12,9.694445096784246,75.11002444987776,
1.6867349110652134E12,9.707931841365319,75.11002444987776,
1.6867349110671663E12,9.726394978331921,75.11002444987776,
1.6867349110691191E12,9.726178613445594,75.11002444987776,
1.686734911071072E12,9.72589012693049,75.11002444987776,
1.686734911073025E12,9.705407584358166,75.11002444987776,
1.6867349110749778E12,9.704542124812857,75.11002444987776,
1.6867349110769307E12,9.701368773146722,75.11002444987776,
1.6867349110788835E12,9.71081670651635,75.11002444987776,
1.6867349110808364E12,9.724664059241302,75.11002444987776,
1.6867349110827893E12,9.717019166591069,75.11002444987776,
1.6867349110847422E12,9.72848650556642,75.11002444987776,
1.686734911086695E12,9.733751384467052,75.11002444987776,
1.686734911088648E12,9.733246533065621,75.11002444987776,
1.6867349110906008E12,9.732308951891536,75.11002444987776,
1.6867349110925537E12,9.727765289278661,75.11002444987776,
1.6867349110945066E12,9.70396515178265,75.11002444987776,
1.6867349110964595E12,9.715360369129225,75.11002444987776,
1.6867349110984124E12,9.732020465376433,75.11002444987776,
1.6867349111003652E12,9.740242331056873,75.11002444987776,
1.686734911102318E12,9.745507209957506,75.11002444987776,
1.686734911104271E12,9.749978750941604,75.11002444987776,
1.6867349111062239E12,9.752935737721412,75.11002444987776,
1.6867349111081768E12,9.751709670032223,75.11002444987776,
1.6867349111101296E12,9.748824804881192,75.11002444987776,
1.6867349111120825E12,9.739737479655442,75.11002444987776,
1.6867349111140354E12,9.745146601813627,75.11002444987776,
1.6867349111159883E12,9.74781510207833,75.11002444987776,
1.6867349111179412E12,9.74132415548851,75.11002444987776,
1.686734911119894E12,9.75142118351712,75.11002444987776,
1.686734911121847E12,9.73411199261093,75.11002444987776,
1.6867349111237998E12,9.7243755727262,75.11002444987776,
1.6867349111257527E12,9.727693167649885,75.11002444987776,
1.6867349111277056E12,9.724664059241302,75.11002444987776,
1.6867349111296584E12,9.713124598637176,75.11002444987776,
1.6867349111316113E12,9.725818005301715,75.11002444987776,
1.6867349111335642E12,9.730794397687244,75.11002444987776,
1.686734911135517E12,9.7449302369273,75.11002444987776,
1.68673491113747E12,9.74081930408708,75.11002444987776,
1.6867349111394229E12,9.741901128518716,75.11002444987776,
1.6867349111413757E12,9.726322856703145,75.11002444987776,
1.6867349111433286E12,9.707499111592664,75.11002444987776,
1.6867349111452815E12,9.700647556858964,75.11002444987776,
1.6867349111472344E12,9.707499111592664,75.11002444987776,
1.6867349111491873E12,9.703676665267547,75.11002444987776,
1.6867349111511401E12,9.697762691707933,75.11002444987776,
1.6867349111530928E12,9.707282746706337,75.11002444987776,
1.6867349111550457E12,9.694012367011592,75.11002444987776,
1.6867349111569985E12,9.701296651517946,75.11002444987776,
1.6867349111589514E12,9.704614246441633,75.11002444987776,
1.6867349111609043E12,9.672087391863752,75.11002444987776,
1.6867349111628572E12,9.687377177164219,75.11002444987776,
1.68673491116481E12,9.690839015345457,75.11002444987776,
1.686734911166763E12,9.698195421480587,75.11002444987776,
1.6867349111687158E12,9.696680867276296,75.11002444987776,
1.6867349111706687E12,9.691343866746887,75.11002444987776,
1.6867349111726216E12,9.68240078477869,75.11002444987776,
1.6867349111745745E12,9.67828985193847,75.11002444987776,
1.6867349111765273E12,9.667760094137204,75.11002444987776,
1.6867349111784802E12,9.682256541521138,75.11002444987776,
1.686734911180433E12,9.68651171761891,75.11002444987776,
1.686734911182386E12,9.692137204663421,75.11002444987776,
1.6867349111843389E12,9.694805704928125,75.11002444987776,
1.6867349111862917E12,9.70980700371349,75.11002444987776,
1.6867349111882446E12,9.703027570608565,75.11002444987776,
1.6867349111901975E12,9.68514140667217,75.11002444987776,
1.6867349111921504E12,9.700791800116516,75.11002444987776,
1.6867349111941033E12,9.684636555270739,75.11002444987776,
1.6867349111960562E12,9.676270446332747,75.11002444987776,
1.686734911198009E12,9.684203825498084,75.11002444987776,
1.686734911199962E12,9.680381379172967,75.11002444987776,
1.6867349112019148E12,9.688819609739735,75.11002444987776,
1.6867349112038677E12,9.68615110947503,75.11002444987776,
1.6867349112058206E12,9.685069285043394,75.11002444987776,
1.6867349112077734E12,9.6856462580736,75.11002444987776,
1.6867349112097263E12,9.695959650988538,75.11002444987776,
1.6867349112116792E12,9.705840314130821,75.11002444987776,
1.686734911213632E12,9.723942842953544,75.11002444987776,
1.686734911215585E12,9.795271133812802,75.11002444987776,
1.6867349112175378E12,9.80695483767448,75.11002444987776,
1.6867349112194907E12,9.84993932842485,75.11002444987776,
1.6867349112214436E12,9.860901815998771,75.11002444987776,
1.6867349112233965E12,9.919969429966145,75.11002444987776,
1.6867349112253494E12,9.989783166621109,75.11002444987776,
1.6867349112273022E12,10.048850780588483,75.11002444987776,
1.6867349112292551E12,10.09241224436906,75.11002444987776,
1.686734911231208E12,10.09926379910276,75.11002444987776,
1.686734911233161E12,10.115851773721191,75.11002444987776,
1.6867349112351138E12,10.122703328454891,75.11002444987776,
1.6867349112370667E12,10.07149697202408,75.11002444987776,
1.6867349112390195E12,10.040989523051921,75.11002444987776,
1.6867349112409724E12,9.927325836101275,75.11002444987776,
1.6867349112429253E12,9.8885243998199,75.11002444987776,
1.6867349112448782E12,9.841140489714205,75.11002444987776,
1.686734911246831E12,9.78640017347338,75.11002444987776,
1.686734911248784E12,9.761157603401852,75.11002444987776,
1.6867349112507368E12,9.722716775264356,75.11002444987776,
1.6867349112526897E12,9.684420190384412,75.11002444987776,
1.6867349112546426E12,9.648215132738965,75.11002444987776,
1.6867349112565955E12,9.671654662091097,75.11002444987776,
1.6867349112585483E12,9.683843217354205,75.11002444987776,
1.6867349112605012E12,9.690334163944026,75.11002444987776,
1.686734911262454E12,9.688675366482183,75.11002444987776,
1.686734911264407E12,9.700359070343861,75.11002444987776,
1.6867349112663599E12,9.70208998943448,75.11002444987776,
1.6867349112683127E12,9.710239733486144,75.11002444987776,
1.6867349112702656E12,9.713990058182485,75.11002444987776,
1.6867349112722183E12,9.70980700371349,75.11002444987776,
1.6867349112741711E12,9.716009463788208,75.11002444987776,
1.686734911276124E12,9.712980355379624,75.11002444987776,
1.686734911278077E12,9.712619747235745,75.11002444987776,
1.6867349112800298E12,9.717379774734948,75.11002444987776,
1.6867349112819827E12,9.716225828674535,75.11002444987776,
1.6867349112839355E12,9.709734882084714,75.11002444987776,
1.6867349112858884E12,9.706056679017149,75.11002444987776,
1.6867349112878413E12,9.70894154416818,75.11002444987776,
1.6867349112897942E12,9.707499111592664,75.11002444987776,
1.686734911291747E12,9.696031772617314,75.11002444987776,
1.6867349112937E12,9.69300266420873,75.11002444987776,
1.6867349112956528E12,9.700791800116516,75.11002444987776,
1.6867349112976057E12,9.710383976743696,75.11002444987776,
1.6867349112995586E12,9.71665855844719,75.11002444987776,
1.6867349113015115E12,9.715720977273104,75.11002444987776,
1.6867349113034644E12,9.741756885261164,75.11002444987776,
1.6867349113054172E12,9.723293748294562,75.11002444987776,
1.68673491130737E12,9.708508814395525,75.11002444987776,
1.686734911309323E12,9.713124598637176,75.11002444987776,
1.686734911311276E12,9.714278544697589,75.11002444987776,
1.6867349113132288E12,9.720192518257203,75.11002444987776,
1.6867349113151816E12,9.725818005301715,75.11002444987776,
1.6867349113171345E12,9.730217424657038,75.11002444987776,
1.6867349113190874E12,9.7336071412095,75.11002444987776,
1.6867349113210403E12,9.719327058711894,75.11002444987776,
1.6867349113229932E12,9.717091288219844,75.11002444987776,
1.686734911324946E12,9.714206423068813,75.11002444987776,
1.686734911326899E12,9.708364571137974,75.11002444987776,
1.6867349113288518E12,9.710167611857369,75.11002444987776,
1.6867349113308047E12,9.736636249618083,75.11002444987776,
1.6867349113327576E12,9.729424086740504,75.11002444987776,
1.6867349113347104E12,9.734039870982155,75.11002444987776,
1.6867349113366633E12,9.736564127989308,75.11002444987776,
1.6867349113386162E12,9.727981654164989,75.11002444987776,
1.686734911340569E12,9.730073181399487,75.11002444987776,
1.686734911342522E12,9.734544722383585,75.11002444987776,
1.6867349113444749E12,9.719543423598221,75.11002444987776,
1.6867349113464277E12,9.738150803822375,75.11002444987776,
1.6867349113483806E12,9.756541819160201,75.11002444987776,
1.6867349113503335E12,9.746012061358936,75.11002444987776,
1.6867349113522864E12,9.74817571022221,75.11002444987776,
1.6867349113542393E12,9.748752683252416,75.11002444987776,
1.6867349113561921E12,9.749473899540174,75.11002444987776,
1.686734911358145E12,9.740098087799321,75.11002444987776,
1.686734911360098E12,9.731299249088675,75.11002444987776,
1.6867349113620508E12,9.72264465363558,75.11002444987776,
1.6867349113640037E12,9.73670837124686,75.11002444987776,
1.6867349113659565E12,9.748536318366089,75.11002444987776,
1.6867349113679094E12,9.766061874158607,75.11002444987776,
1.6867349113698623E12,9.766999455332693,75.11002444987776,
1.6867349113718152E12,9.759210319424906,75.11002444987776,
1.686734911373768E12,9.758849711281027,75.11002444987776,
1.686734911375721E12,9.755243629842237,75.11002444987776,
1.6867349113776738E12,9.74543508832873,75.11002444987776,
1.6867349113796267E12,9.757118792190408,75.11002444987776,
1.6867349113815796E12,9.770028563741276,75.11002444987776,
1.6867349113835325E12,9.76137396828818,75.11002444987776,
1.6867349113854854E12,9.772552820748428,75.11002444987776,
1.6867349113874382E12,9.765484901128401,75.11002444987776,
1.686734911389391E12,9.766566725560038,75.11002444987776,
1.6867349113913438E12,9.772552820748428,75.11002444987776,
1.6867349113932966E12,9.769379469082294,75.11002444987776,
1.6867349113952495E12,9.772985550521083,75.11002444987776,
1.6867349113972024E12,9.784741376011537,75.11002444987776,
1.6867349113991553E12,9.781135294572747,75.11002444987776,
1.6867349114011082E12,9.786760781617259,75.11002444987776,
1.686734911403061E12,9.80010328294078,75.11002444987776,
1.686734911405014E12,9.786328051844604,75.11002444987776,
1.6867349114069668E12,9.778322551050492,75.11002444987776,
1.6867349114089197E12,9.790583227942376,75.11002444987776,
1.6867349114108726E12,9.786688659988483,75.11002444987776,
1.6867349114128254E12,9.793468093093407,75.11002444987776,
1.6867349114147783E12,9.801617837145072,75.11002444987776,
1.6867349114167312E12,9.79923782339547,75.11002444987776,
1.686734911418684E12,9.828663447935993,75.11002444987776,
1.686734911420637E12,9.82974527236763,75.11002444987776,
1.6867349114225898E12,9.819504001081468,75.11002444987776,
1.6867349114245427E12,9.829673150738854,75.11002444987776,
1.6867349114264956E12,9.82253310949005,75.11002444987776,
1.6867349114284485E12,9.834938029639487,75.11002444987776,
1.6867349114304014E12,9.837534408275415,75.11002444987776,
1.6867349114323542E12,9.839265327366034,75.11002444987776,
1.6867349114343071E12,9.848857503993214,75.11002444987776,
1.68673491143626E12,9.857872707590188,75.11002444987776,
1.686734911438213E12,9.858738167135497,75.11002444987776,
1.6867349114401658E12,9.850660544712609,75.11002444987776,
1.6867349114421187E12,9.839121084108482,75.11002444987776,
1.6867349114440715E12,9.85938726179448,75.11002444987776,
1.6867349114460244E12,9.864796383952664,75.11002444987776,
1.6867349114479773E12,9.872008546830243,75.11002444987776,
1.6867349114499302E12,9.870421870997175,75.11002444987776,
1.686734911451883E12,9.88780318353214,75.11002444987776,
1.686734911453836E12,9.890688048683174,75.11002444987776,
1.6867349114557888E12,9.882394061373956,75.11002444987776,
1.6867349114577417E12,9.88095162879844,75.11002444987776,
1.6867349114596946E12,9.875181898496377,75.11002444987776,
1.6867349114616475E12,9.871575817057588,75.11002444987776,
1.6867349114636003E12,9.869917019595745,75.11002444987776,
1.6867349114655532E12,9.875326141753929,75.11002444987776,
1.686734911467506E12,9.894582616637067,75.11002444987776,
1.686734911469459E12,9.901145684855663,75.11002444987776,
1.6867349114714119E12,9.887009845615607,75.11002444987776,
1.6867349114733647E12,9.88816379167602,75.11002444987776,
1.6867349114753176E12,9.88780318353214,75.11002444987776,
1.6867349114772705E12,9.8864328725854,75.11002444987776,
1.6867349114792234E12,9.885783777926418,75.11002444987776,
1.6867349114811763E12,9.89025531891052,75.11002444987776,
1.6867349114831292E12,9.883259520919266,75.11002444987776,
1.686734911485082E12,9.901650536257094,75.11002444987776,
1.686734911487035E12,9.881528601828647,75.11002444987776,
1.6867349114889878E12,9.867537005846144,75.11002444987776,
1.6867349114909407E12,9.881023750427216,75.11002444987776,
1.6867349114928936E12,9.86212788368796,75.11002444987776,
1.6867349114948464E12,9.850083571682402,75.11002444987776,
1.6867349114967993E12,9.84806416607668,75.11002444987776,
1.6867349114987522E12,9.852319342174452,75.11002444987776,
1.686734911500705E12,9.852968436833434,75.11002444987776,
1.686734911502658E12,9.8453235441832,75.11002444987776,
1.6867349115046108E12,9.83984230039624,75.11002444987776,
1.6867349115065637E12,9.822677352747602,75.11002444987776,
1.6867349115085166E12,9.815825798013902,75.11002444987776,
1.6867349115104692E12,9.80969545956796,75.11002444987776,
1.686734911512422E12,9.795559620327905,75.11002444987776,
1.686734911514375E12,9.78964564676829,75.11002444987776,
1.686734911516328E12,9.79375657960851,75.11002444987776,
1.6867349115182808E12,9.801257229001193,75.11002444987776,
1.6867349115202336E12,9.787193511389914,75.11002444987776,
1.6867349115221865E12,9.775293442641908,75.11002444987776,
1.6867349115241394E12,9.761950941318386,75.11002444987776,
1.6867349115260923E12,9.753224224236515,75.11002444987776,
1.6867349115280452E12,9.73584291170155,75.11002444987776,
1.686734911529998E12,9.75142118351712,75.11002444987776,
1.686734911531951E12,9.751060575373241,75.11002444987776,
1.6867349115339038E12,9.75827273825082,75.11002444987776,
1.6867349115358567E12,9.756758184046529,75.11002444987776,
1.6867349115378096E12,9.749834507684053,75.11002444987776,
1.6867349115397625E12,9.741035668973407,75.11002444987776,
1.6867349115417153E12,9.731443492346227,75.11002444987776,
1.6867349115436682E12,9.729279843482953,75.11002444987776,
1.686734911545621E12,9.73310228980807,75.11002444987776,
1.686734911547574E12,9.739016263367684,75.11002444987776,
1.6867349115495269E12,9.737934438936048,75.11002444987776,
1.6867349115514797E12,9.744353263897093,75.11002444987776,
1.6867349115534326E12,9.740314452685649,75.11002444987776,
1.6867349115553855E12,9.741179912230958,75.11002444987776,
1.6867349115573384E12,9.7312271274599,75.11002444987776,
1.6867349115592913E12,9.72314950503701,75.11002444987776,
1.6867349115612441E12,9.713701571667382,75.11002444987776,
1.686734911563197E12,9.724952545756405,75.11002444987776,
1.68673491156515E12,9.731587735603778,75.11002444987776,
1.6867349115671028E12,9.725818005301715,75.11002444987776,
1.6867349115690557E12,9.742550223177698,75.11002444987776,
1.6867349115710085E12,9.730578032800917,75.11002444987776,
1.6867349115729614E12,9.723654356438441,75.11002444987776,
1.6867349115749143E12,9.726178613445594,75.11002444987776,
1.6867349115768672E12,9.717451896363723,75.11002444987776,
1.68673491157882E12,9.717379774734948,75.11002444987776,
1.686734911580773E12,9.740242331056873,75.11002444987776,
1.6867349115827258E12,9.729640451626832,75.11002444987776,
1.6867349115846787E12,9.752935737721412,75.11002444987776,
1.6867349115866316E12,9.746372669502815,75.11002444987776,
1.6867349115885845E12,9.738799898481357,75.11002444987776,
1.6867349115905374E12,9.734328357497258,75.11002444987776,
1.6867349115924902E12,9.730578032800917,75.11002444987776,
1.686734911594443E12,9.715720977273104,75.11002444987776,
1.686734911596396E12,9.731299249088675,75.11002444987776,
1.6867349115983489E12,9.72949620836928,75.11002444987776,
1.6867349116003018E12,9.759426684311233,75.11002444987776,
1.6867349116022546E12,9.749834507684053,75.11002444987776,
1.6867349116042075E12,9.734833208898689,75.11002444987776,
1.6867349116061604E12,9.716153707045759,75.11002444987776,
1.6867349116081133E12,9.720481004772306,75.11002444987776,
1.6867349116100662E12,9.732525316777863,75.11002444987776,
1.686734911612019E12,9.72401496458232,75.11002444987776,
1.686734911613972E12,9.73223683026276,75.11002444987776,
1.6867349116159248E12,9.725024667385181,75.11002444987776,
1.6867349116178777E12,9.729640451626832,75.11002444987776,
1.6867349116198306E12,9.741035668973407,75.11002444987776,
1.6867349116217834E12,9.735915033330325,75.11002444987776,
1.6867349116237363E12,9.724447694354975,74.5631067961165,
1.6867349116256892E12,9.726178613445594,74.5631067961165,
1.686734911627642E12,9.729207721854177,74.5631067961165,
1.686734911629595E12,9.724736180870078,74.5631067961165,
1.6867349116315476E12,9.741756885261164,74.5631067961165,
1.6867349116335005E12,9.736203519845429,74.5631067961165,
1.6867349116354534E12,9.739016263367684,74.5631067961165,
1.6867349116374062E12,9.749906629312829,74.5631067961165,
1.6867349116393591E12,9.747526615563228,74.5631067961165,
1.686734911641312E12,9.74817571022221,74.5631067961165,
1.686734911643265E12,9.735770790072774,74.5631067961165,
1.6867349116452178E12,9.731443492346227,74.5631067961165,
1.6867349116471707E12,9.7449302369273,74.5631067961165,
1.6867349116491235E12,9.749834507684053,74.5631067961165,
1.6867349116510764E12,9.743848412495662,74.5631067961165,
1.6867349116530293E12,9.750122994199156,74.5631067961165,
1.6867349116549822E12,9.758993954538578,74.5631067961165,
1.686734911656935E12,9.736131398216653,74.5631067961165,
1.686734911658888E12,9.741973250147492,74.5631067961165,
1.6867349116608408E12,9.735265938671343,74.5631067961165,
1.6867349116627937E12,9.735410181928895,74.5631067961165,
1.6867349116647466E12,9.74370416923811,74.5631067961165,
1.6867349116666995E12,9.741035668973407,74.5631067961165,
1.6867349116686523E12,9.747093885790573,74.5631067961165,
1.6867349116706052E12,9.74781510207833,74.5631067961165,
1.686734911672558E12,9.74370416923811,74.5631067961165,
1.686734911674511E12,9.736275641474204,74.5631067961165,
1.6867349116764639E12,9.710672463258799,74.5631067961165,
1.6867349116784167E12,9.72264465363558,74.5631067961165,
1.6867349116803696E12,9.740170209428097,74.5631067961165,
1.6867349116823225E12,9.74081930408708,74.5631067961165,
1.6867349116842754E12,9.740602939200752,74.5631067961165,
1.6867349116862283E12,9.745867818101384,74.5631067961165,
1.6867349116881812E12,9.742622344806474,74.5631067961165,
1.686734911690134E12,9.743992655753214,74.5631067961165,
1.686734911692087E12,9.730145303028262,74.5631067961165,
1.6867349116940398E12,9.7267555864758,74.5631067961165,
1.6867349116959927E12,9.726539221589473,74.5631067961165,
1.6867349116979456E12,9.73223683026276,74.5631067961165,
1.6867349116998984E12,9.744641750412196,74.5631067961165,
1.6867349117018513E12,9.741901128518716,74.5631067961165,
1.6867349117038042E12,9.737068979390738,74.5631067961165,
1.686734911705757E12,9.728919235339074,74.5631067961165,
1.68673491170771E12,9.720985856173737,74.5631067961165,
1.6867349117096628E12,9.728414383937643,74.5631067961165,
1.6867349117116157E12,9.717884626136378,74.5631067961165,
1.6867349117135686E12,9.73000105977071,74.5631067961165,
1.6867349117155215E12,9.734544722383585,74.5631067961165,
1.6867349117174744E12,9.737790195678496,74.5631067961165,
1.6867349117194272E12,9.740314452685649,74.5631067961165,
1.6867349117213801E12,9.744785993669748,74.5631067961165,
1.686734911723333E12,9.741901128518716,74.5631067961165,
1.686734911725286E12,9.727693167649885,74.5631067961165,
1.6867349117272388E12,9.726394978331921,74.5631067961165,
1.6867349117291917E12,9.740386574314424,74.5631067961165,
1.6867349117311445E12,9.735770790072774,74.5631067961165,
1.6867349117330974E12,9.728702870452747,74.5631067961165,
1.6867349117350503E12,9.726971951362128,74.5631067961165,
1.6867349117370032E12,9.7336071412095,74.5631067961165,
1.686734911738956E12,9.728342262308868,74.5631067961165,
1.686734911740909E12,9.72314950503701,74.5631067961165,
1.6867349117428618E12,9.711970652576763,74.5631067961165,
1.6867349117448147E12,9.717091288219844,74.5631067961165,
1.6867349117467676E12,9.73310228980807,74.5631067961165,
1.6867349117487205E12,9.731155005831123,74.5631067961165,
1.686734911750673E12,9.72711619461968,74.5631067961165,
1.686734911752626E12,9.724447694354975,74.5631067961165,
1.6867349117545789E12,9.72762104602111,74.5631067961165,
1.6867349117565317E12,9.727404681134782,74.5631067961165,
1.6867349117584846E12,9.703171813866117,74.5631067961165,
1.6867349117604375E12,9.70295544897979,74.5631067961165,
1.6867349117623904E12,9.723726478067217,74.5631067961165,
1.6867349117643433E12,9.733030168179294,74.5631067961165,
1.6867349117662961E12,9.733895627724603,74.5631067961165,
1.686734911768249E12,9.728774992081522,74.5631067961165,
1.686734911770202E12,9.738799898481357,74.5631067961165,
1.6867349117721548E12,9.717019166591069,74.5631067961165,
1.6867349117741077E12,9.714350666326364,74.5631067961165,
1.6867349117760605E12,9.71218701746309,74.5631067961165,
1.6867349117780134E12,9.717451896363723,74.5631067961165,
1.6867349117799663E12,9.721923437347822,74.5631067961165,
1.6867349117819192E12,9.739665358026667,74.5631067961165,
1.686734911783872E12,9.73771807404972,74.5631067961165,
1.686734911785825E12,9.74593993973016,74.5631067961165,
1.6867349117877778E12,9.726394978331921,74.5631067961165,
1.6867349117897307E12,9.719254937083118,74.5631067961165,
1.6867349117916836E12,9.713196720265952,74.5631067961165,
1.6867349117936365E12,9.713990058182485,74.5631067961165,
1.6867349117955894E12,9.70346030038122,74.5631067961165,
1.6867349117975422E12,9.720120396628428,74.5631067961165,
1.686734911799495E12,9.720264639885979,74.5631067961165,
1.686734911801448E12,9.735915033330325,74.5631067961165,
1.686734911803401E12,9.733030168179294,74.5631067961165,
1.6867349118053538E12,9.721562829203943,74.5631067961165,
1.6867349118073066E12,9.72625073507437,74.5631067961165,
1.6867349118092595E12,9.713196720265952,74.5631067961165,
1.6867349118112124E12,9.718822207310463,74.5631067961165,
1.6867349118131653E12,9.721202221060064,74.5631067961165,
1.6867349118151182E12,9.73685261450441,74.5631067961165,
1.686734911817071E12,9.737141101019514,74.5631067961165,
1.686734911819024E12,9.73036166791459,74.5631067961165,
1.6867349118209768E12,9.737573830792169,74.5631067961165,
1.6867349118229297E12,9.720841612916185,74.5631067961165,
1.6867349118248826E12,9.704109395040202,74.5631067961165,
1.6867349118268354E12,9.705984557388373,74.5631067961165,
1.6867349118287883E12,9.700575435230189,74.5631067961165,
1.6867349118307412E12,9.720841612916185,74.5631067961165,
1.686734911832694E12,9.736492006360532,74.5631067961165,
1.686734911834647E12,9.748896926509968,74.5631067961165,
1.6867349118365999E12,9.740602939200752,74.5631067961165,
1.6867349118385527E12,9.725673762044163,74.5631067961165,
1.6867349118405056E12,9.72985681651316,74.5631067961165,
1.6867349118424585E12,9.7243755727262,74.5631067961165,
1.6867349118444114E12,9.722861018521908,74.5631067961165,
1.6867349118463643E12,9.72899135696785,74.5631067961165,
1.6867349118483171E12,9.742766588064026,74.5631067961165,
1.68673491185027E12,9.742838709692801,74.5631067961165,
1.686734911852223E12,9.742910831321577,74.5631067961165,
1.6867349118541758E12,9.73721322264829,74.5631067961165,
1.6867349118561287E12,9.739521114769115,74.5631067961165,
1.6867349118580815E12,9.73959323639789,74.5631067961165,
1.6867349118600344E12,9.744785993669748,74.5631067961165,
1.6867349118619873E12,9.737645952420944,74.5631067961165,
1.6867349118639402E12,9.74355992598056,74.5631067961165,
1.686734911865893E12,9.748319953479761,74.5631067961165,
1.686734911867846E12,9.760796995257973,74.5631067961165,
1.6867349118697986E12,9.754883021698358,74.5631067961165,
1.6867349118717515E12,9.7449302369273,74.5631067961165,
1.6867349118737043E12,9.751060575373241,74.5631067961165,
1.6867349118756572E12,9.756181211016322,74.5631067961165,
1.68673491187761E12,9.748752683252416,74.5631067961165,
1.686734911879563E12,9.752358764691206,74.5631067961165,
1.6867349118815159E12,9.758921832909802,74.5631067961165,
1.6867349118834688E12,9.771543117945567,74.5631067961165,
1.6867349118854216E12,9.774139496581496,74.5631067961165,
1.6867349118873745E12,9.775581929157012,74.5631067961165,
1.6867349118893274E12,9.762167306204713,74.5631067961165,
1.6867349118912803E12,9.765484901128401,74.5631067961165,
1.6867349118932332E12,9.760580630371646,74.5631067961165,
1.686734911895186E12,9.764114590181661,74.5631067961165,
1.686734911897139E12,9.765773387643504,74.5631067961165,
1.6867349118990918E12,9.764547319954316,74.5631067961165,
1.6867349119010447E12,9.760220022227767,74.5631067961165,
1.6867349119029976E12,9.75329634586529,74.5631067961165,
1.6867349119049504E12,9.748319953479761,74.5631067961165,
1.6867349119069033E12,9.731948343747657,74.5631067961165,
1.6867349119088562E12,9.745362966699954,74.5631067961165,
1.686734911910809E12,9.743920534124438,74.5631067961165,
1.686734911912762E12,9.740025966170546,74.5631067961165,
1.6867349119147148E12,9.74319931783668,74.5631067961165,
1.6867349119166677E12,9.75452241355448,74.5631067961165,
1.6867349119186206E12,9.759570927568785,74.5631067961165,
1.6867349119205735E12,9.74233385829137,74.5631067961165,
1.6867349119225264E12,9.725457397157836,74.5631067961165,
1.6867349119244792E12,9.724952545756405,74.5631067961165,
1.6867349119264321E12,9.722788896893132,74.5631067961165,
1.686734911928385E12,9.707138503448785,74.5631067961165,
1.686734911930338E12,9.721057977802513,74.5631067961165,
1.6867349119322908E12,9.717235531477396,74.5631067961165,
1.6867349119342437E12,9.734688965641137,74.5631067961165,
1.6867349119361965E12,9.7336071412095,74.5631067961165,
1.6867349119381494E12,9.722933140150683,74.5631067961165,
1.6867349119401023E12,9.723437991552114,74.5631067961165,
1.6867349119420552E12,9.71802886939393,74.5631067961165,
1.686734911944008E12,9.720481004772306,74.5631067961165,
1.686734911945961E12,9.697762691707933,74.5631067961165,
1.6867349119479138E12,9.708653057653077,74.5631067961165,
1.6867349119498667E12,9.726394978331921,74.5631067961165,
1.6867349119518196E12,9.728198019051316,74.5631067961165,
1.6867349119537725E12,9.734616844012361,74.5631067961165,
1.6867349119557253E12,9.728702870452747,74.5631067961165,
1.6867349119576782E12,9.716442193560862,74.5631067961165,
1.686734911959631E12,9.713196720265952,74.5631067961165,
1.686734911961584E12,9.718245234280257,74.5631067961165,
1.6867349119635369E12,9.717596139621275,74.5631067961165,
1.6867349119654897E12,9.722211923862925,74.5631067961165,
1.6867349119674426E12,9.728198019051316,74.5631067961165,
1.6867349119693955E12,9.734544722383585,74.5631067961165,
1.6867349119713484E12,9.720553126401082,74.5631067961165,
1.6867349119733013E12,9.70432575992653,74.5631067961165,
1.6867349119752542E12,9.692714177693627,74.5631067961165,
1.686734911977207E12,9.69985421894243,74.5631067961165,
1.68673491197916E12,9.71939918034067,74.5631067961165,
1.6867349119811128E12,9.711105193031454,74.5631067961165,
1.6867349119830657E12,9.729784694884383,74.5631067961165,
1.6867349119850186E12,9.728774992081522,74.5631067961165,
1.6867349119869714E12,9.762455792719816,74.5631067961165,
1.6867349119889243E12,9.79188141726034,74.5631067961165,
1.686734911990877E12,9.818638541536158,74.5631067961165,
1.6867349119928298E12,9.83436105660928,74.5631067961165,
